1633576158.00
64.000000
-0.00
-0.00
-0.00
-0.00
-0.00
-0.00
-0.00
-0.00
-0.00
-0.00
0.00
0.01
0.01
-0.00
-0.03
-0.05
-0.05
0.00
0.13
0.36
0.66
1.01
1.37
1.72
2.06
2.40
2.78
3.23
3.79
4.44
5.13
5.79
6.38
6.89
7.35
7.84
8.43
9.24
10.24
11.33
12.39
13.34
14.20
15.10
16.23
17.77
19.98
22.72
25.74
28.73
31.47
33.95
36.43
39.35
43.09
48.13
54.26
61.01
67.75
73.99
79.59
84.90
90.60
97.38
106.06
116.44
127.86
139.35
150.04
159.53
168.15
177.17
185.60
196.21
210.15
227.81
247.86
266.86
279.77
281.43
268.32
239.99
199.51
151.51
100.78
50.53
1.88
-45.64
-93.04
-141.05
-189.66
-237.86
-284.11
-325.89
-359.93
-382.86
-392.37
-388.19
-372.34
-348.58
-320.91
-292.65
-265.78
-241.15
-218.95
-199.17
-181.67
-166.08
-151.72
-137.65
-123.29
-108.55
-93.94
-80.21
-68.12
-57.96
-49.56
-42.37
-35.72
-29.09
-22.27
-15.38
-8.77
-2.90
1.87
5.45
8.05
10.14
12.20
14.57
17.22
19.82
21.93
23.18
23.53
23.25
22.75
22.42
22.42
22.67
22.96
23.06
22.84
22.31
21.57
20.70
19.77
18.85
17.98
17.22
16.63
16.27
16.12
16.08
16.02
15.79
15.33
14.63
13.81
13.03
12.43
12.09
11.98
11.97
11.91
11.66
11.18
10.51
9.78
9.15
8.73
8.57
8.62
8.75
8.84
8.75
8.46
8.02
7.55
7.16
6.90
6.73
6.55
6.27
5.87
5.44
5.14
5.09
5.33
5.76
6.18
6.42
6.37
6.06
5.58
5.05
4.57
4.17
3.86
3.63
3.50
3.42
3.39
3.35
3.25
3.08
2.87
2.67
2.55
2.49
2.47
2.39
2.18
1.79
1.24
0.63
0.06
-0.38
-0.63
-0.75
-0.82
-0.91
-1.06
-1.27
-1.49
-1.66
-1.77
-1.81
-1.84
-1.89
-1.96
-2.03
-2.06
-2.01
-1.85
-1.61
-1.35
-1.14
-1.04
-1.05
-1.12
-1.16
-1.07
-0.81
-0.41
0.06
0.48
0.79
0.98
1.07
1.13
1.23
1.38
1.59
1.83
2.07
2.27
2.40
2.46
2.45
2.40
2.32
2.22
2.09
1.91
1.69
1.50
1.41
1.48
1.72
2.05
2.35
2.53
2.58
2.52
2.44
2.41
2.40
2.38
2.30
2.19
2.09
2.07
2.13
2.24
2.29
2.25
2.16
2.07
2.06
2.12
2.18
2.14
1.98
1.74
1.58
1.60
1.80
2.08
2.29
2.32
2.18
1.95
1.75
1.61
1.51
1.40
1.24
1.06
0.96
1.02
1.25
1.57
1.85
1.97
1.90
1.67
1.37
1.07
0.86
0.75
0.74
0.81
0.94
1.09
1.21
1.24
1.14
0.94
0.71
0.59
0.67
0.96
1.37
1.73
1.91
1.87
1.68
1.47
1.31
1.21
1.12
0.97
0.73
0.45
0.19
-0.01
-0.13
-0.18
-0.16
-0.05
0.17
0.47
0.83
1.17
1.39
1.44
1.28
0.95
0.55
0.21
0.03
0.06
0.28
0.59
0.93
1.19
1.32
1.26
1.00
0.57
0.11
-0.21
-0.25
0.00
0.42
0.78
0.91
0.79
0.56
0.39
0.40
0.53
0.67
0.72
0.65
0.55
0.51
0.53
0.54
0.43
0.19
-0.06
-0.17
-0.04
0.30
0.65
0.84
0.76
0.48
0.16
-0.02
0.05
0.30
0.63
0.89
1.03
1.04
0.94
0.77
0.53
0.27
0.02
-0.15
-0.20
-0.09
0.20
0.61
1.04
1.32
1.33
0.99
0.39
-0.28
-0.74
-0.82
-0.48
0.09
0.65
0.98
1.02
0.83
0.56
0.30
0.10
-0.07
-0.23
-0.35
-0.38
-0.28
-0.05
0.25
0.52
0.68
0.69
0.57
0.35
0.11
-0.10
-0.19
-0.16
-0.01
0.19
0.36
0.44
0.43
0.39
0.39
0.48
0.62
0.73
0.74
0.61
0.42
0.26
0.25
0.36
0.53
0.61
0.57
0.45
0.35
0.34
0.44
0.54
0.53
0.37
0.09
-0.18
-0.34
-0.36
-0.28
-0.20
-0.16
-0.16
-0.15
-0.07
0.08
0.25
0.35
0.33
0.18
-0.04
-0.23
-0.28
-0.14
0.18
0.58
0.93
1.13
1.12
0.92
0.62
0.32
0.12
0.05
0.09
0.17
0.22
0.19
0.11
0.03
0.00
0.03
0.07
0.02
-0.14
-0.38
-0.55
-0.54
-0.29
0.10
0.45
0.58
0.43
0.07
-0.32
-0.57
-0.62
-0.52
-0.38
-0.32
-0.38
-0.51
-0.59
-0.52
-0.29
0.06
0.40
0.61
0.60
0.37
0.00
-0.36
-0.61
-0.68
-0.56
-0.33
-0.06
0.18
0.38
0.54
0.63
0.62
0.49
0.27
0.03
-0.09
-0.02
0.26
0.63
0.94
1.04
0.91
0.62
0.31
0.10
0.03
0.09
0.20
0.29
0.33
0.33
0.32
0.32
0.34
0.37
0.39
0.37
0.30
0.23
0.17
0.18
0.24
0.31
0.32
0.25
0.13
0.01
-0.02
0.06
0.23
0.39
0.44
0.33
0.06
-0.28
-0.57
-0.69
-0.58
-0.26
0.18
0.61
0.89
0.93
0.72
0.35
-0.04
-0.35
-0.49
-0.43
-0.22
0.08
0.38
0.61
0.72
0.68
0.49
0.22
-0.06
-0.29
-0.41
-0.42
-0.34
-0.19
-0.01
0.16
0.29
0.32
0.25
0.08
-0.14
-0.34
-0.47
-0.48
-0.39
-0.21
-0.01
0.15
0.22
0.14
-0.05
-0.32
-0.56
-0.71
-0.73
-0.62
-0.44
-0.24
-0.07
0.03
0.07
0.06
0.01
-0.03
-0.05
-0.02
0.04
0.12
0.17
0.16
0.11
0.05
0.05
0.13
0.29
0.49
0.66
0.74
0.70
0.55
0.36
0.18
0.04
-0.06
-0.16
-0.27
-0.38
-0.44
-0.40
-0.20
0.13
0.52
0.88
1.14
1.26
1.21
0.99
0.61
0.12
-0.38
-0.75
-0.83
-0.57
-0.06
0.52
0.92
1.01
0.78
0.37
-0.06
-0.39
-0.62
-0.79
-0.98
-1.21
-1.42
-1.55
-1.53
-1.34
-1.01
-0.58
-0.15
0.23
0.49
0.61
0.57
0.42
0.21
-0.01
-0.20
-0.35
-0.50
-0.63
-0.76
-0.81
-0.76
-0.57
-0.27
0.04
0.29
0.41
0.38
0.27
0.14
0.04
-0.01
0.01
0.10
0.29
0.60
0.99
1.39
1.69
1.80
1.70
1.41
1.04
0.69
0.46
0.35
0.35
0.39
0.42
0.38
0.27
0.10
-0.09
-0.23
-0.27
-0.17
0.04
0.33
0.58
0.70
0.63
0.37
-0.01
-0.45
-0.85
-1.12
-1.22
-1.12
-0.85
-0.50
-0.22
-0.10
-0.14
-0.25
-0.27
-0.09
0.25
0.59
0.73
0.54
0.06
-0.54
-1.01
-1.19
-1.04
-0.66
-0.23
0.14
0.38
0.52
0.57
0.57
0.49
0.33
0.08
-0.23
-0.53
-0.75
-0.85
-0.79
-0.63
-0.38
-0.12
0.11
0.27
0.31
0.23
0.03
-0.22
-0.42
-0.46
-0.28
0.05
0.42
0.66
0.68
0.45
0.06
-0.37
-0.70
-0.87
-0.84
-0.62
-0.25
0.22
0.72
1.16
1.45
1.53
1.40
1.11
0.74
0.41
0.19
0.17
0.30
0.50
0.63
0.56
0.26
-0.21
-0.66
-0.91
-0.87
-0.55
-0.11
0.26
0.42
0.33
0.09
-0.16
-0.29
-0.25
-0.12
-0.04
-0.12
-0.38
-0.72
-0.99
-1.07
-0.92
-0.61
-0.27
0.02
0.18
0.24
0.22
0.17
0.07
-0.08
-0.25
-0.38
-0.41
-0.26
0.05
0.43
0.78
0.97
0.97
0.80
0.53
0.24
-0.02
-0.22
-0.35
-0.38
-0.28
-0.04
0.29
0.60
0.81
0.85
0.73
0.50
0.21
-0.07
-0.33
-0.54
-0.70
-0.78
-0.77
-0.68
-0.53
-0.34
-0.15
0.00
0.10
0.12
0.06
-0.06
-0.20
-0.33
-0.42
-0.47
-0.48
-0.43
-0.29
-0.02
0.39
0.91
1.41
1.71
1.67
1.27
0.59
-0.11
-0.59
-0.68
-0.41
0.05
0.45
0.58
0.42
0.07
-0.29
-0.51
-0.57
-0.52
-0.47
-0.43
-0.41
-0.32
-0.15
0.09
0.37
0.61
0.77
0.82
0.73
0.52
0.18
-0.22
-0.63
-0.94
-1.08
-1.00
-0.71
-0.26
0.23
0.66
0.88
0.84
0.56
0.15
-0.23
-0.44
-0.45
-0.29
-0.04
0.20
0.36
0.44
0.44
0.36
0.20
-0.00
-0.22
-0.37
-0.39
-0.27
-0.05
0.17
0.29
0.24
0.01
-0.35
-0.74
-1.08
-1.29
-1.37
-1.29
-1.08
-0.75
-0.36
0.04
0.37
0.55
0.58
0.48
0.32
0.19
0.15
0.20
0.29
0.38
0.42
0.39
0.29
0.14
-0.05
-0.26
-0.46
-0.62
-0.68
-0.63
-0.45
-0.18
0.14
0.47
0.75
0.93
0.98
0.89
0.70
0.49
0.36
0.37
0.50
0.69
0.86
0.94
0.90
0.74
0.49
0.15
-0.27
-0.74
-1.17
-1.45
-1.51
-1.33
-0.98
-0.56
-0.17
0.14
0.33
0.39
0.28
0.04
-0.27
-0.55
-0.67
-0.57
-0.27
0.13
0.47
0.66
0.64
0.43
0.12
-0.21
-0.46
-0.57
-0.51
-0.26
0.09
0.48
0.78
0.93
0.91
0.76
0.54
0.31
0.10
-0.08
-0.21
-0.26
-0.22
-0.10
0.07
0.22
0.31
0.28
0.17
0.00
-0.13
-0.18
-0.12
-0.01
0.09
0.13
0.06
-0.08
-0.21
-0.25
-0.10
0.23
0.66
1.02
1.16
1.02
0.64
0.15
-0.27
-0.52
-0.56
-0.44
-0.22
0.01
0.22
0.40
0.53
0.60
0.59
0.49
0.31
0.03
-0.33
-0.78
-1.24
-1.63
-1.86
-1.83
-1.55
-1.07
-0.51
-0.02
0.28
0.32
0.14
-0.16
-0.40
-0.47
-0.32
-0.03
0.31
0.57
0.74
0.84
0.91
0.98
0.99
0.88
0.60
0.19
-0.25
-0.58
-0.70
-0.58
-0.32
-0.03
0.16
0.19
0.06
-0.17
-0.38
-0.48
-0.41
-0.17
0.16
0.50
0.73
0.78
0.60
0.24
-0.21
-0.61
-0.81
-0.75
-0.46
-0.07
0.27
0.39
0.23
-0.17
-0.67
-1.10
-1.34
-1.33
-1.12
-0.79
-0.42
-0.08
0.22
0.49
0.73
0.91
0.99
0.93
0.76
0.51
0.30
0.19
0.22
0.33
0.41
0.36
0.16
-0.13
-0.42
-0.59
-0.59
-0.48
-0.34
-0.24
-0.19
-0.12
-0.01
0.16
0.32
0.39
0.37
0.29
0.28
0.39
0.61
0.81
0.89
0.77
0.49
0.14
-0.15
-0.33
-0.43
-0.50
-0.62
-0.79
-0.93
-0.92
-0.67
-0.17
0.46
1.05
1.39
1.38
1.05
0.53
0.00
-0.36
-0.50
-0.44
-0.28
-0.13
-0.04
-0.00
0.04
0.10
0.16
0.16
0.04
-0.20
-0.47
-0.65
-0.63
-0.43
-0.11
0.19
0.41
0.54
0.63
0.73
0.79
0.73
0.48
0.05
-0.42
-0.75
-0.84
-0.68
-0.43
-0.23
-0.19
-0.26
-0.33
-0.30
-0.15
0.06
0.25
0.35
0.37
0.33
0.26
0.18
0.08
-0.02
-0.09
-0.05
0.09
0.32
0.52
0.60
0.51
0.28
-0.01
-0.24
-0.31
-0.22
-0.00
0.26
0.49
0.62
0.59
0.41
0.08
-0.35
-0.79
-1.14
-1.30
-1.26
-1.03
-0.73
-0.45
-0.25
-0.12
-0.02
0.12
0.31
0.52
0.69
0.74
0.65
0.41
0.08
-0.27
-0.51
-0.55
-0.35
0.06
0.58
1.08
1.46
1.66
1.67
1.52
1.22
0.80
0.30
-0.24
-0.74
-1.11
-1.32
-1.35
-1.27
-1.14
-1.02
-0.94
-0.88
-0.79
-0.65
-0.48
-0.33
-0.25
-0.27
-0.37
-0.49
-0.57
-0.56
-0.45
-0.32
-0.22
-0.20
-0.23
-0.23
-0.10
0.19
0.59
0.94
1.10
0.97
0.60
0.14
-0.21
-0.32
-0.18
0.07
0.31
0.42
0.42
0.39
0.40
0.47
0.59
0.71
0.78
0.83
0.82
0.73
0.50
0.10
-0.41
-0.88
-1.14
-1.12
-0.83
-0.43
-0.09
0.10
0.15
0.15
0.14
0.13
0.07
-0.07
-0.26
-0.39
-0.34
-0.06
0.36
0.74
0.88
0.68
0.22
-0.28
-0.57
-0.52
-0.19
0.22
0.50
0.54
0.37
0.16
0.06
0.13
0.25
0.30
0.17
-0.10
-0.37
-0.46
-0.30
0.07
0.46
0.71
0.70
0.46
0.12
-0.17
-0.33
-0.35
-0.32
-0.32
-0.39
-0.51
-0.60
-0.61
-0.53
-0.42
-0.33
-0.28
-0.26
-0.21
-0.11
0.00
0.08
0.08
-0.01
-0.15
-0.29
-0.39
-0.45
-0.49
-0.49
-0.44
-0.29
-0.04
0.28
0.55
0.69
0.63
0.42
0.14
-0.09
-0.17
-0.06
0.23
0.59
0.89
1.02
0.92
0.62
0.23
-0.13
-0.37
-0.51
-0.58
-0.66
-0.74
-0.79
-0.71
-0.46
-0.05
0.45
0.92
1.26
1.40
1.31
1.03
0.62
0.20
-0.16
-0.38
-0.42
-0.31
-0.11
0.11
0.27
0.33
0.28
0.16
-0.01
-0.16
-0.31
-0.47
-0.64
-0.84
-1.00
-1.04
-0.90
-0.57
-0.14
0.25
0.46
0.42
0.14
-0.28
-0.72
-1.08
-1.30
-1.36
-1.29
-1.13
-0.91
-0.66
-0.37
-0.05
0.31
0.66
0.94
1.11
1.15
1.04
0.81
0.50
0.15
-0.16
-0.32
-0.27
0.03
0.50
0.98
1.30
1.33
1.05
0.57
0.05
-0.37
-0.62
-0.71
-0.69
-0.65
-0.59
-0.51
-0.39
-0.21
0.01
0.26
0.50
0.73
0.92
1.07
1.15
1.14
1.05
0.89
0.69
0.48
0.28
0.12
-0.00
-0.06
-0.05
0.03
0.16
0.30
0.39
0.39
0.29
0.11
-0.11
-0.31
-0.44
-0.44
-0.31
-0.10
0.09
0.13
-0.08
-0.53
-1.09
-1.56
-1.73
-1.54
-1.07
-0.51
-0.07
0.17
0.23
0.26
0.35
0.51
0.64
0.60
0.38
0.04
-0.22
-0.26
-0.04
0.31
0.62
0.72
0.62
0.41
0.25
0.23
0.31
0.38
0.35
0.20
0.02
-0.11
-0.13
-0.13
-0.18
-0.32
-0.51
-0.65
-0.63
-0.47
-0.25
-0.07
-0.03
-0.10
-0.22
-0.33
-0.36
-0.30
-0.19
-0.06
0.09
0.21
0.31
0.37
0.39
0.38
0.35
0.30
0.22
0.09
-0.08
-0.25
-0.38
-0.42
-0.38
-0.31
-0.27
-0.30
-0.38
-0.45
-0.42
-0.28
-0.05
0.17
0.29
0.29
0.25
0.26
0.35
0.46
0.45
0.22
-0.24
-0.77
-1.12
-1.10
-0.70
-0.10
0.41
0.62
0.48
0.15
-0.17
-0.29
-0.21
-0.03
0.12
0.17
0.17
0.19
0.29
0.42
0.47
0.34
0.04
-0.34
-0.62
-0.68
-0.49
-0.16
0.16
0.32
0.26
0.02
-0.28
-0.54
-0.65
-0.60
-0.44
-0.23
-0.04
0.07
0.09
0.04
-0.05
-0.11
-0.11
-0.05
0.04
0.11
0.13
0.08
0.01
-0.05
-0.04
0.05
0.22
0.44
0.69
0.95
1.16
1.31
1.32
1.17
0.87
0.50
0.16
-0.04
-0.04
0.12
0.32
0.43
0.38
0.18
-0.07
-0.26
-0.33
-0.31
-0.26
-0.25
-0.30
-0.35
-0.35
-0.30
-0.22
-0.18
-0.21
-0.34
-0.52
-0.70
-0.79
-0.71
-0.48
-0.14
0.18
0.35
0.34
0.18
-0.01
-0.13
-0.13
-0.08
-0.10
-0.28
-0.57
-0.85
-0.98
-0.89
-0.59
-0.22
0.11
0.31
0.35
0.26
0.12
0.01
0.01
0.17
0.48
0.84
1.15
1.30
1.23
0.98
0.66
0.38
0.19
0.07
-0.01
-0.07
-0.08
0.00
0.17
0.32
0.32
0.09
-0.34
-0.82
-1.14
-1.15
-0.85
-0.35
0.18
0.59
0.82
0.90
0.84
0.70
0.46
0.15
-0.20
-0.52
-0.72
-0.78
-0.70
-0.55
-0.39
-0.28
-0.25
-0.28
-0.32
-0.34
-0.31
-0.27
-0.24
-0.26
-0.32
-0.37
-0.34
-0.21
-0.01
0.17
0.23
0.12
-0.15
-0.46
-0.68
-0.69
-0.45
-0.04
0.42
0.77
0.93
0.86
0.64
0.35
0.11
-0.04
-0.06
0.01
0.12
0.23
0.31
0.34
0.32
0.26
0.17
0.07
-0.03
-0.12
-0.22
-0.35
-0.50
-0.65
-0.74
-0.72
-0.55
-0.27
0.06
0.34
0.54
0.62
0.61
0.55
0.47
0.34
0.20
0.04
-0.11
-0.20
-0.22
-0.16
-0.04
0.13
0.34
0.54
0.72
0.82
0.83
0.71
0.48
0.19
-0.08
-0.28
-0.34
-0.29
-0.17
-0.04
0.04
0.06
0.03
-0.02
-0.08
-0.13
-0.17
-0.20
-0.20
-0.17
-0.11
-0.05
0.02
0.08
0.15
0.22
0.30
0.36
0.41
0.46
0.53
0.65
0.79
0.90
0.89
0.73
0.42
0.03
-0.34
-0.60
-0.70
-0.66
-0.52
-0.36
-0.24
-0.22
-0.31
-0.47
-0.65
-0.78
-0.82
-0.78
-0.68
-0.57
-0.45
-0.33
-0.17
0.03
0.26
0.44
0.48
0.36
0.10
-0.23
-0.53
-0.71
-0.75
-0.66
-0.49
-0.30
-0.13
-0.03
-0.02
-0.06
-0.11
-0.10
-0.03
0.08
0.16
0.17
0.13
0.10
0.14
0.24
0.32
0.27
0.04
-0.29
-0.56
-0.59
-0.35
0.10
0.59
0.94
1.09
1.04
0.85
0.60
0.31
0.04
-0.18
-0.33
-0.38
-0.34
-0.24
-0.12
-0.02
0.05
0.08
0.07
0.00
-0.11
-0.25
-0.38
-0.45
-0.43
-0.30
-0.10
0.14
0.36
0.51
0.59
0.61
0.62
0.63
0.63
0.60
0.55
0.46
0.34
0.18
-0.04
-0.33
-0.66
-0.93
-1.05
-0.96
-0.66
-0.27
0.11
0.36
0.47
0.48
0.46
0.45
0.47
0.48
0.46
0.38
0.23
0.06
-0.09
-0.19
-0.26
-0.33
-0.42
-0.53
-0.61
-0.62
-0.52
-0.35
-0.17
-0.07
-0.08
-0.17
-0.23
-0.20
-0.04
0.18
0.39
0.50
0.47
0.34
0.17
-0.00
-0.14
-0.26
-0.35
-0.39
-0.35
-0.20
0.03
0.28
0.48
0.59
0.62
0.59
0.51
0.39
0.22
0.01
-0.20
-0.37
-0.47
-0.50
-0.48
-0.43
-0.36
-0.27
-0.18
-0.09
-0.03
-0.02
-0.03
-0.02
0.04
0.13
0.24
0.34
0.42
0.52
0.65
0.78
0.87
0.85
0.69
0.39
0.04
-0.28
-0.49
-0.57
-0.54
-0.46
-0.41
-0.41
-0.46
-0.47
-0.37
-0.16
0.11
0.30
0.34
0.22
0.05
-0.02
0.09
0.36
0.64
0.76
0.61
0.25
-0.20
-0.58
-0.79
-0.85
-0.84
-0.84
-0.85
-0.81
-0.64
-0.29
0.20
0.67
0.97
0.96
0.62
0.07
-0.53
-0.99
-1.20
-1.17
-0.95
-0.65
-0.33
-0.04
0.20
0.39
0.47
0.43
0.27
0.05
-0.12
-0.15
-0.03
0.16
0.30
0.31
0.18
0.01
-0.05
0.06
0.31
0.57
0.67
0.56
0.28
-0.05
-0.26
-0.29
-0.15
0.08
0.28
0.39
0.37
0.24
0.03
-0.21
-0.42
-0.55
-0.56
-0.45
-0.24
0.00
0.20
0.33
0.39
0.41
0.40
0.37
0.32
0.27
0.23
0.22
0.23
0.26
0.28
0.30
0.30
0.29
0.25
0.20
0.15
0.16
0.28
0.51
0.79
1.01
1.05
0.83
0.41
-0.09
-0.50
-0.72
-0.76
-0.67
-0.57
-0.51
-0.50
-0.53
-0.54
-0.51
-0.48
-0.46
-0.48
-0.54
-0.62
-0.67
-0.65
-0.56
-0.38
-0.17
0.06
0.25
0.37
0.39
0.32
0.14
-0.10
-0.34
-0.51
-0.58
-0.50
-0.29
0.01
0.35
0.64
0.82
0.85
0.74
0.51
0.26
0.05
-0.07
-0.09
-0.05
0.02
0.08
0.14
0.18
0.23
0.28
0.29
0.24
0.11
-0.10
-0.33
-0.52
-0.60
-0.54
-0.38
-0.15
0.07
0.25
0.40
0.50
0.53
0.45
0.24
-0.08
-0.41
-0.61
-0.60
-0.36
0.01
0.35
0.52
0.45
0.22
-0.07
-0.30
-0.42
-0.47
-0.48
-0.47
-0.39
-0.20
0.09
0.42
0.66
0.74
0.65
0.47
0.29
0.15
0.04
-0.09
-0.27
-0.47
-0.62
-0.64
-0.54
-0.37
-0.23
-0.17
-0.22
-0.32
-0.38
-0.35
-0.20
0.02
0.22
0.32
0.27
0.11
-0.07
-0.18
-0.14
0.03
0.24
0.40
0.46
0.42
0.34
0.29
0.28
0.28
0.23
0.12
-0.01
-0.10
-0.09
0.02
0.17
0.30
0.37
0.37
0.32
0.26
0.21
0.19
0.20
0.22
0.23
0.21
0.15
0.06
-0.07
-0.21
-0.33
-0.45
-0.54
-0.57
-0.49
-0.29
-0.01
0.23
0.31
0.19
-0.06
-0.29
-0.34
-0.17
0.12
0.39
0.47
0.34
0.09
-0.15
-0.25
-0.15
0.08
0.35
0.53
0.55
0.38
0.07
-0.29
-0.57
-0.70
-0.63
-0.42
-0.13
0.15
0.36
0.48
0.53
0.50
0.40
0.24
0.03
-0.20
-0.43
-0.66
-0.90
-1.13
-1.29
-1.31
-1.13
-0.74
-0.26
0.12
0.27
0.14
-0.17
-0.45
-0.52
-0.31
0.09
0.50
0.79
0.87
0.81
0.70
0.62
0.57
0.47
0.29
0.02
-0.26
-0.45
-0.48
-0.39
-0.23
-0.12
-0.09
-0.14
-0.24
-0.30
-0.28
-0.16
0.02
0.22
0.37
0.41
0.31
0.09
-0.16
-0.33
-0.37
-0.29
-0.20
-0.19
-0.30
-0.47
-0.57
-0.49
-0.24
0.11
0.42
0.60
0.63
0.56
0.45
0.33
0.21
0.09
-0.03
-0.09
-0.04
0.11
0.33
0.55
0.68
0.70
0.63
0.52
0.44
0.42
0.46
0.55
0.65
0.71
0.72
0.68
0.59
0.46
0.28
0.09
-0.10
-0.24
-0.32
-0.30
-0.22
-0.12
-0.02
0.04
0.09
0.13
0.18
0.22
0.21
0.13
-0.00
-0.15
-0.26
-0.30
-0.28
-0.24
-0.25
-0.35
-0.50
-0.64
-0.69
-0.62
-0.46
-0.27
-0.14
-0.09
-0.11
-0.15
-0.19
-0.18
-0.14
-0.07
0.01
0.10
0.18
0.22
0.21
0.16
0.08
-0.03
-0.16
-0.29
-0.40
-0.45
-0.42
-0.29
-0.10
0.08
0.20
0.23
0.22
0.23
0.28
0.37
0.44
0.45
0.37
0.24
0.12
0.08
0.12
0.22
0.28
0.23
0.07
-0.16
-0.36
-0.41
-0.30
-0.05
0.20
0.31
0.22
-0.06
-0.42
-0.71
-0.79
-0.62
-0.27
0.14
0.43
0.53
0.42
0.17
-0.09
-0.26
-0.29
-0.23
-0.14
-0.10
-0.11
-0.14
-0.11
0.06
0.34
0.64
0.84
0.83
0.61
0.29
0.04
-0.04
0.07
0.26
0.37
0.31
0.07
-0.22
-0.44
-0.51
-0.45
-0.37
-0.38
-0.49
-0.62
-0.65
-0.51
-0.22
0.09
0.26
0.23
0.05
-0.18
-0.33
-0.38
-0.36
-0.34
-0.35
-0.35
-0.30
-0.17
-0.03
0.02
-0.07
-0.28
-0.50
-0.62
-0.56
-0.39
-0.23
-0.17
-0.24
-0.34
-0.36
-0.22
0.08
0.45
0.77
0.96
1.00
0.94
0.86
0.79
0.75
0.71
0.60
0.42
0.15
-0.14
-0.40
-0.56
-0.60
-0.50
-0.30
-0.05
0.19
0.37
0.46
0.43
0.31
0.15
-0.02
-0.18
-0.31
-0.40
-0.45
-0.46
-0.41
-0.30
-0.14
0.04
0.21
0.33
0.38
0.35
0.23
0.07
-0.11
-0.32
-0.54
-0.75
-0.90
-0.92
-0.75
-0.39
0.06
0.47
0.70
0.71
0.59
0.48
0.49
0.64
0.79
0.79
0.55
0.09
-0.41
-0.76
-0.85
-0.68
-0.36
-0.01
0.27
0.44
0.50
0.46
0.32
0.08
-0.22
-0.50
-0.68
-0.70
-0.60
-0.46
-0.36
-0.33
-0.33
-0.28
-0.14
0.08
0.28
0.38
0.31
0.14
-0.05
-0.16
-0.14
0.00
0.18
0.34
0.46
0.55
0.64
0.71
0.75
0.77
0.78
0.81
0.88
0.95
0.96
0.85
0.62
0.31
0.02
-0.17
-0.20
-0.10
0.08
0.27
0.40
0.42
0.29
0.03
-0.31
-0.65
-0.86
-0.88
-0.71
-0.43
-0.16
0.02
0.07
0.05
0.01
0.00
0.02
0.00
-0.08
-0.27
-0.52
-0.80
-1.02
-1.10
-1.02
-0.79
-0.48
-0.18
0.06
0.24
0.40
0.56
0.72
0.78
0.66
0.34
-0.12
-0.51
-0.65
-0.45
0.00
0.52
0.87
0.92
0.69
0.30
-0.10
-0.40
-0.56
-0.63
-0.66
-0.65
-0.60
-0.46
-0.24
-0.01
0.13
0.13
-0.00
-0.16
-0.22
-0.13
0.07
0.28
0.34
0.21
-0.04
-0.25
-0.28
-0.10
0.22
0.51
0.64
0.59
0.41
0.21
0.08
0.01
-0.06
-0.18
-0.33
-0.46
-0.48
-0.33
-0.02
0.36
0.68
0.85
0.82
0.61
0.28
-0.09
-0.43
-0.69
-0.83
-0.83
-0.71
-0.52
-0.33
-0.19
-0.12
-0.14
-0.20
-0.27
-0.34
-0.39
-0.42
-0.44
-0.43
-0.36
-0.23
-0.06
0.13
0.34
0.53
0.69
0.79
0.79
0.68
0.48
0.24
0.04
-0.05
0.02
0.20
0.42
0.57
0.56
0.35
-0.03
-0.49
-0.86
-1.03
-0.93
-0.59
-0.14
0.27
0.53
0.59
0.50
0.34
0.20
0.13
0.17
0.30
0.52
0.78
1.06
1.30
1.44
1.41
1.17
0.73
0.17
-0.40
-0.87
-1.15
-1.19
-1.02
-0.73
-0.41
-0.19
-0.15
-0.31
-0.62
-0.92
-1.06
-0.93
-0.52
0.04
0.59
1.00
1.19
1.18
1.04
0.85
0.67
0.52
0.41
0.33
0.23
0.09
-0.12
-0.34
-0.53
-0.60
-0.53
-0.36
-0.17
-0.05
-0.02
-0.05
-0.07
-0.07
-0.07
-0.10
-0.19
-0.31
-0.40
-0.40
-0.31
-0.16
-0.02
0.06
0.06
-0.01
-0.11
-0.19
-0.24
-0.24
-0.18
-0.06
0.07
0.16
0.18
0.13
0.04
0.01
0.06
0.18
0.28
0.27
0.10
-0.18
-0.44
-0.52
-0.36
-0.02
0.33
0.52
0.44
0.15
-0.21
-0.49
-0.58
-0.50
-0.36
-0.26
-0.22
-0.23
-0.20
-0.08
0.12
0.34
0.51
0.56
0.50
0.34
0.12
-0.12
-0.36
-0.54
-0.61
-0.51
-0.28
0.02
0.30
0.50
0.59
0.59
0.53
0.45
0.36
0.26
0.17
0.11
0.10
0.16
0.24
0.29
0.25
0.11
-0.14
-0.43
-0.70
-0.86
-0.86
-0.70
-0.44
-0.19
-0.03
0.01
-0.01
-0.00
0.08
0.23
0.40
0.51
0.53
0.49
0.46
0.46
0.47
0.39
0.19
-0.12
-0.45
-0.67
-0.69
-0.54
-0.30
-0.05
0.13
0.27
0.40
0.54
0.68
0.75
0.70
0.49
0.17
-0.17
-0.41
-0.51
-0.47
-0.35
-0.24
-0.17
-0.15
-0.12
-0.03
0.12
0.24
0.24
0.07
-0.25
-0.58
-0.79
-0.79
-0.62
-0.36
-0.15
-0.03
0.01
0.04
0.11
0.23
0.36
0.45
0.47
0.42
0.33
0.25
0.20
0.17
0.13
0.04
-0.12
-0.32
-0.51
-0.66
-0.71
-0.66
-0.52
-0.29
0.01
0.33
0.60
0.73
0.65
0.38
-0.00
-0.34
-0.48
-0.33
0.06
0.55
0.93
1.04
0.84
0.42
-0.01
-0.24
-0.17
0.14
0.52
0.76
0.71
0.37
-0.13
-0.64
-1.02
-1.21
-1.22
-1.10
-0.86
-0.54
-0.18
0.13
0.34
0.39
0.25
-0.03
-0.34
-0.57
-0.61
-0.43
-0.06
0.39
0.75
0.89
0.77
0.45
0.05
-0.26
-0.36
-0.23
0.08
0.46
0.79
0.94
0.89
0.65
0.33
0.06
-0.07
-0.05
0.07
0.18
0.23
0.18
0.06
-0.10
-0.27
-0.44
-0.60
-0.70
-0.73
-0.63
-0.42
-0.13
0.16
0.37
0.45
0.38
0.21
0.01
-0.16
-0.24
-0.21
-0.09
0.07
0.20
0.24
0.15
-0.06
-0.35
-0.65
-0.87
-0.95
-0.88
-0.71
-0.50
-0.30
-0.13
0.05
0.27
0.55
0.85
1.08
1.14
0.96
0.54
-0.05
-0.65
-1.09
-1.23
-1.01
-0.51
0.10
0.62
0.88
0.82
0.54
0.17
-0.13
-0.28
-0.27
-0.16
0.00
0.17
0.32
0.43
0.47
0.42
0.31
0.18
0.10
0.07
0.06
0.01
-0.15
-0.40
-0.66
-0.84
-0.83
-0.65
-0.38
-0.14
-0.04
-0.11
-0.28
-0.43
-0.47
-0.36
-0.12
0.19
0.49
0.76
0.96
1.09
1.13
1.05
0.84
0.54
0.21
-0.07
-0.24
-0.33
-0.39
-0.46
-0.55
-0.61
-0.56
-0.36
-0.05
0.28
0.51
0.58
0.51
0.39
0.34
0.38
0.44
0.43
0.26
-0.06
-0.41
-0.65
-0.68
-0.52
-0.27
-0.07
-0.02
-0.08
-0.19
-0.25
-0.23
-0.16
-0.12
-0.18
-0.32
-0.46
-0.52
-0.42
-0.21
0.05
0.23
0.28
0.22
0.14
0.12
0.22
0.41
0.59
0.67
0.58
0.39
0.20
0.13
0.22
0.39
0.52
0.49
0.30
0.03
-0.18
-0.25
-0.18
-0.05
0.03
0.02
-0.08
-0.20
-0.29
-0.32
-0.34
-0.35
-0.35
-0.29
-0.15
0.03
0.15
0.12
-0.06
-0.31
-0.49
-0.51
-0.35
-0.14
0.01
0.02
-0.09
-0.20
-0.20
-0.03
0.25
0.51
0.67
0.69
0.63
0.57
0.55
0.57
0.56
0.46
0.22
-0.11
-0.45
-0.67
-0.67
-0.47
-0.13
0.20
0.39
0.40
0.26
0.07
-0.10
-0.20
-0.25
-0.28
-0.32
-0.36
-0.38
-0.34
-0.24
-0.05
0.19
0.46
0.69
0.83
0.83
0.67
0.41
0.13
-0.06
-0.12
-0.06
0.06
0.15
0.16
0.08
-0.06
-0.17
-0.21
-0.12
0.06
0.27
0.43
0.48
0.40
0.21
-0.05
-0.32
-0.55
-0.71
-0.82
-0.90
-0.97
-1.05
-1.09
-1.04
-0.85
-0.52
-0.11
0.25
0.46
0.48
0.32
0.10
-0.07
-0.12
-0.03
0.13
0.28
0.35
0.26
0.02
-0.32
-0.65
-0.82
-0.72
-0.36
0.14
0.57
0.77
0.69
0.43
0.19
0.13
0.30
0.63
0.96
1.16
1.18
1.03
0.78
0.50
0.25
0.07
-0.02
-0.01
0.06
0.14
0.15
0.04
-0.19
-0.49
-0.79
-1.03
-1.11
-1.00
-0.70
-0.26
0.24
0.64
0.85
0.79
0.52
0.12
-0.25
-0.50
-0.56
-0.47
-0.29
-0.12
-0.03
-0.05
-0.18
-0.35
-0.49
-0.54
-0.48
-0.33
-0.13
0.04
0.14
0.16
0.07
-0.10
-0.34
-0.60
-0.81
-0.88
-0.75
-0.44
-0.03
0.35
0.61
0.69
0.61
0.43
0.22
0.03
-0.11
-0.21
-0.28
-0.34
-0.39
-0.39
-0.31
-0.10
0.21
0.56
0.84
0.96
0.90
0.68
0.38
0.10
-0.11
-0.21
-0.21
-0.13
0.03
0.25
0.50
0.73
0.87
0.87
0.71
0.42
0.06
-0.26
-0.46
-0.53
-0.47
-0.35
-0.20
-0.06
0.08
0.18
0.25
0.24
0.17
0.06
-0.05
-0.14
-0.20
-0.24
-0.28
-0.34
-0.43
-0.53
-0.61
-0.65
-0.60
-0.46
-0.26
-0.08
0.02
0.01
-0.08
-0.16
-0.17
-0.11
-0.01
0.03
-0.00
-0.08
-0.14
-0.11
0.01
0.16
0.28
0.34
0.35
0.33
0.33
0.37
0.45
0.55
0.65
0.75
0.78
0.71
0.54
0.29
0.03
-0.15
-0.20
-0.13
0.03
0.19
0.28
0.23
0.03
-0.30
-0.68
-1.02
-1.19
-1.14
-0.88
-0.52
-0.19
0.02
0.08
0.05
0.03
0.07
0.19
0.36
0.51
0.60
0.57
0.42
0.18
-0.09
-0.30
-0.40
-0.40
-0.35
-0.34
-0.40
-0.53
-0.66
-0.69
-0.62
-0.47
-0.32
-0.24
-0.23
-0.22
-0.14
0.07
0.39
0.72
0.96
1.05
0.98
0.80
0.62
0.49
0.43
0.41
0.34
0.18
-0.06
-0.30
-0.46
-0.44
-0.25
0.04
0.30
0.42
0.34
0.13
-0.07
-0.14
-0.01
0.27
0.57
0.80
0.89
0.84
0.71
0.52
0.25
-0.13
-0.59
-1.06
-1.39
-1.48
-1.30
-0.90
-0.43
-0.05
0.12
0.05
-0.21
-0.55
-0.80
-0.84
-0.59
-0.09
0.51
0.99
1.20
1.05
0.64
0.13
-0.29
-0.50
-0.49
-0.32
-0.06
0.22
0.48
0.70
0.81
0.78
0.56
0.21
-0.17
-0.43
-0.48
-0.32
-0.06
0.14
0.14
-0.06
-0.38
-0.65
-0.76
-0.68
-0.46
-0.21
-0.00
0.15
0.28
0.43
0.59
0.72
0.74
0.66
0.51
0.41
0.41
0.54
0.69
0.72
0.54
0.14
-0.33
-0.66
-0.71
-0.46
-0.08
0.22
0.25
0.02
-0.33
-0.59
-0.62
-0.42
-0.12
0.11
0.15
0.02
-0.18
-0.31
-0.34
-0.30
-0.27
-0.33
-0.48
-0.65
-0.74
-0.68
-0.46
-0.15
0.14
0.32
0.37
0.29
0.15
0.01
-0.09
-0.11
-0.07
0.01
0.14
0.27
0.40
0.48
0.49
0.44
0.35
0.28
0.27
0.30
0.32
0.27
0.13
-0.05
-0.20
-0.27
-0.21
-0.08
0.07
0.15
0.15
0.06
-0.09
-0.24
-0.33
-0.33
-0.24
-0.07
0.12
0.29
0.44
0.55
0.64
0.68
0.67
0.55
0.31
0.00
-0.31
-0.55
-0.64
-0.57
-0.40
-0.19
-0.03
0.03
-0.03
-0.19
-0.38
-0.52
-0.56
-0.45
-0.18
0.18
0.50
0.66
0.56
0.16
-0.41
-0.99
-1.37
-1.45
-1.22
-0.78
-0.31
0.05
0.23
0.25
0.17
0.08
0.02
0.01
0.04
0.11
0.23
0.38
0.54
0.67
0.74
0.72
0.63
0.49
0.36
0.25
0.19
0.19
0.22
0.25
0.23
0.12
-0.06
-0.24
-0.33
-0.26
-0.05
0.21
0.39
0.37
0.18
-0.13
-0.41
-0.60
-0.69
-0.71
-0.71
-0.68
-0.59
-0.42
-0.19
0.02
0.14
0.17
0.13
0.09
0.11
0.18
0.26
0.30
0.29
0.25
0.24
0.27
0.32
0.36
0.36
0.33
0.28
0.24
0.22
0.19
0.14
0.04
-0.09
-0.23
-0.35
-0.41
-0.36
-0.21
0.04
0.33
0.57
0.68
0.63
0.45
0.21
0.02
-0.09
-0.12
-0.13
-0.19
-0.30
-0.41
-0.42
-0.28
0.04
0.41
0.70
0.80
0.65
0.31
-0.12
-0.54
-0.85
-1.01
-1.03
-0.91
-0.65
-0.30
0.07
0.40
0.58
0.57
0.37
0.06
-0.25
-0.47
-0.50
-0.33
0.01
0.43
0.81
1.06
1.13
1.05
0.93
0.83
0.79
0.77
0.70
0.50
0.19
-0.15
-0.43
-0.58
-0.60
-0.58
-0.60
-0.69
-0.81
-0.86
-0.76
-0.47
-0.04
0.40
0.72
0.81
0.64
0.26
-0.20
-0.58
-0.77
-0.72
-0.47
-0.16
0.11
0.25
0.28
0.26
0.26
0.28
0.30
0.25
0.11
-0.09
-0.30
-0.46
-0.53
-0.52
-0.45
-0.33
-0.17
0.03
0.25
0.46
0.61
0.67
0.62
0.47
0.25
0.02
-0.15
-0.23
-0.22
-0.15
-0.09
-0.10
-0.19
-0.35
-0.50
-0.57
-0.53
-0.39
-0.19
0.00
0.16
0.26
0.33
0.37
0.41
0.43
0.41
0.33
0.14
-0.15
-0.54
-0.94
-1.27
-1.41
-1.33
-1.06
-0.69
-0.39
-0.23
-0.23
-0.35
-0.45
-0.47
-0.35
-0.15
0.07
0.26
0.39
0.46
0.49
0.49
0.47
0.44
0.38
0.31
0.25
0.23
0.26
0.31
0.34
0.31
0.18
0.00
-0.16
-0.23
-0.14
0.08
0.36
0.60
0.70
0.63
0.41
0.09
-0.26
-0.55
-0.70
-0.65
-0.41
-0.04
0.31
0.53
0.54
0.36
0.08
-0.19
-0.36
-0.39
-0.34
-0.25
-0.19
-0.16
-0.14
-0.09
0.02
0.20
0.42
0.62
0.74
0.71
0.54
0.24
-0.08
-0.35
-0.49
-0.47
-0.32
-0.10
0.11
0.23
0.24
0.17
0.03
-0.11
-0.26
-0.36
-0.43
-0.44
-0.38
-0.27
-0.12
0.05
0.21
0.37
0.49
0.59
0.63
0.63
0.58
0.49
0.38
0.27
0.15
0.06
0.01
-0.00
0.05
0.13
0.22
0.27
0.30
0.29
0.29
0.34
0.44
0.59
0.72
0.76
0.65
0.38
-0.02
-0.44
-0.75
-0.86
-0.74
-0.48
-0.22
-0.06
-0.08
-0.23
-0.40
-0.49
-0.43
-0.21
0.08
0.33
0.46
0.46
0.36
0.19
-0.00
-0.20
-0.36
-0.47
-0.48
-0.39
-0.22
-0.05
0.04
0.05
-0.00
-0.05
-0.05
0.01
0.08
0.11
0.07
-0.02
-0.13
-0.23
-0.30
-0.32
-0.29
-0.20
-0.08
0.05
0.15
0.21
0.26
0.30
0.35
0.37
0.31
0.17
-0.02
-0.18
-0.22
-0.11
0.08
0.27
0.37
0.37
0.31
0.26
0.27
0.32
0.35
0.28
0.10
-0.15
-0.41
-0.58
-0.62
-0.55
-0.42
-0.31
-0.26
-0.28
-0.32
-0.34
-0.32
-0.30
-0.33
-0.44
-0.60
-0.72
-0.71
-0.54
-0.24
0.10
0.35
0.44
0.40
0.30
0.20
0.16
0.16
0.17
0.19
0.22
0.30
0.42
0.54
0.59
0.51
0.29
-0.01
-0.28
-0.42
-0.37
-0.15
0.13
0.37
0.47
0.40
0.23
0.05
-0.04
0.00
0.14
0.30
0.40
0.37
0.23
0.02
-0.17
-0.28
-0.25
-0.09
0.16
0.40
0.54
0.53
0.37
0.12
-0.12
-0.32
-0.47
-0.60
-0.74
-0.87
-0.93
-0.85
-0.62
-0.31
-0.02
0.15
0.14
-0.01
-0.24
-0.48
-0.67
-0.79
-0.81
-0.70
-0.43
0.02
0.56
1.07
1.39
1.40
1.12
0.66
0.18
-0.21
-0.48
-0.65
-0.77
-0.84
-0.84
-0.72
-0.52
-0.30
-0.15
-0.12
-0.15
-0.14
-0.00
0.28
0.61
0.89
1.00
0.93
0.74
0.51
0.30
0.13
0.00
-0.07
-0.08
-0.02
0.09
0.19
0.23
0.18
0.03
-0.19
-0.43
-0.63
-0.75
-0.72
-0.52
-0.17
0.26
0.63
0.83
0.80
0.62
0.39
0.23
0.18
0.21
0.23
0.17
0.02
-0.15
-0.25
-0.22
-0.02
0.28
0.60
0.81
0.80
0.52
-0.01
-0.65
-1.21
-1.54
-1.51
-1.13
-0.51
0.18
0.73
1.00
0.92
0.52
-0.04
-0.57
-0.90
-0.91
-0.63
-0.18
0.24
0.49
0.50
0.33
0.13
0.01
0.06
0.22
0.40
0.49
0.42
0.22
-0.06
-0.29
-0.41
-0.40
-0.29
-0.15
-0.03
0.04
0.07
0.08
0.08
0.08
0.09
0.10
0.12
0.14
0.19
0.27
0.33
0.34
0.24
0.02
-0.24
-0.44
-0.45
-0.22
0.22
0.74
1.14
1.30
1.16
0.80
0.33
-0.09
-0.40
-0.57
-0.64
-0.65
-0.60
-0.49
-0.33
-0.17
-0.08
-0.14
-0.34
-0.60
-0.83
-0.94
-0.91
-0.81
-0.71
-0.62
-0.50
-0.30
-0.03
0.23
0.38
0.35
0.21
0.07
0.07
0.21
0.39
0.47
0.35
0.07
-0.26
-0.45
-0.41
-0.15
0.19
0.44
0.48
0.30
-0.01
-0.33
-0.51
-0.50
-0.32
-0.05
0.19
0.32
0.35
0.31
0.27
0.24
0.19
0.06
-0.18
-0.49
-0.77
-0.89
-0.78
-0.46
-0.05
0.28
0.44
0.37
0.13
-0.18
-0.48
-0.71
-0.86
-0.93
-0.90
-0.77
-0.53
-0.23
0.09
0.36
0.57
0.71
0.81
0.91
0.99
1.03
0.98
0.85
0.66
0.49
0.39
0.40
0.51
0.65
0.76
0.80
0.77
0.71
0.62
0.52
0.38
0.20
0.00
-0.14
-0.17
-0.05
0.19
0.46
0.63
0.64
0.48
0.23
-0.00
-0.17
-0.26
-0.33
-0.44
-0.58
-0.73
-0.85
-0.88
-0.83
-0.70
-0.53
-0.33
-0.12
0.10
0.31
0.45
0.48
0.36
0.11
-0.22
-0.54
-0.76
-0.86
-0.83
-0.75
-0.65
-0.54
-0.36
-0.07
0.35
0.83
1.23
1.39
1.23
0.81
0.29
-0.12
-0.30
-0.25
-0.08
0.07
0.15
0.16
0.18
0.24
0.33
0.38
0.33
0.18
-0.00
-0.12
-0.11
0.04
0.22
0.35
0.33
0.15
-0.15
-0.51
-0.87
-1.16
-1.36
-1.45
-1.40
-1.23
-0.97
-0.69
-0.49
-0.43
-0.55
-0.76
-0.90
-0.81
-0.42
0.21
0.89
1.35
1.42
1.10
0.52
-0.06
-0.45
-0.57
-0.47
-0.28
-0.09
0.03
0.14
0.27
0.48
0.74
0.97
1.09
1.03
0.79
0.43
0.06
-0.20
-0.30
-0.21
-0.00
0.22
0.37
0.36
0.22
0.01
-0.20
-0.33
-0.36
-0.33
-0.25
-0.14
0.02
0.26
0.55
0.83
1.01
1.01
0.84
0.57
0.32
0.15
0.06
-0.02
-0.16
-0.38
-0.61
-0.73
-0.65
-0.38
-0.03
0.26
0.41
0.42
0.35
0.30
0.31
0.33
0.26
0.03
-0.31
-0.66
-0.87
-0.89
-0.73
-0.51
-0.32
-0.19
-0.09
0.04
0.23
0.43
0.58
0.61
0.50
0.29
0.04
-0.19
-0.39
-0.54
-0.63
-0.64
-0.58
-0.43
-0.22
0.02
0.24
0.38
0.37
0.20
-0.10
-0.44
-0.69
-0.77
-0.65
-0.41
-0.14
0.06
0.15
0.15
0.14
0.16
0.26
0.48
0.78
1.09
1.30
1.31
1.04
0.56
-0.01
-0.46
-0.65
-0.51
-0.15
0.25
0.49
0.47
0.17
-0.30
-0.81
-1.24
-1.46
-1.44
-1.16
-0.67
-0.10
0.42
0.78
0.90
0.77
0.47
0.08
-0.27
-0.50
-0.59
-0.51
-0.34
-0.13
0.03
0.06
-0.03
-0.18
-0.31
-0.33
-0.25
-0.10
0.04
0.10
0.08
0.03
0.02
0.09
0.25
0.46
0.69
0.88
1.00
1.06
1.04
0.93
0.73
0.45
0.19
-0.00
-0.05
0.05
0.22
0.38
0.43
0.34
0.15
-0.10
-0.34
-0.56
-0.79
-1.00
-1.15
-1.17
-1.03
-0.75
-0.44
-0.22
-0.14
-0.18
-0.25
-0.26
-0.18
-0.07
0.01
0.00
-0.05
-0.08
-0.01
0.20
0.51
0.83
1.05
1.08
0.87
0.42
-0.17
-0.76
-1.19
-1.34
-1.16
-0.70
-0.09
0.49
0.96
1.22
1.28
1.14
0.83
0.42
-0.02
-0.39
-0.62
-0.68
-0.61
-0.48
-0.36
-0.28
-0.25
-0.23
-0.21
-0.21
-0.21
-0.23
-0.23
-0.22
-0.21
-0.22
-0.27
-0.31
-0.27
-0.12
0.14
0.39
0.53
0.45
0.21
-0.08
-0.28
-0.32
-0.21
-0.04
0.13
0.27
0.41
0.55
0.68
0.73
0.66
0.45
0.13
-0.21
-0.48
-0.58
-0.49
-0.22
0.14
0.48
0.68
0.68
0.51
0.26
0.01
-0.18
-0.33
-0.45
-0.56
-0.58
-0.47
-0.21
0.12
0.40
0.50
0.42
0.19
-0.04
-0.17
-0.16
-0.04
0.12
0.23
0.25
0.18
0.09
-0.00
-0.06
-0.10
-0.14
-0.17
-0.18
-0.14
-0.04
0.07
0.14
0.14
0.07
-0.03
-0.10
-0.12
-0.07
0.04
0.17
0.32
0.44
0.48
0.40
0.22
-0.01
-0.17
-0.20
-0.08
0.14
0.35
0.49
0.52
0.47
0.33
0.13
-0.12
-0.39
-0.61
-0.71
-0.68
-0.54
-0.37
-0.23
-0.15
-0.10
-0.06
-0.00
0.06
0.10
0.09
0.06
0.04
0.05
0.08
0.09
0.01
-0.17
-0.43
-0.66
-0.77
-0.71
-0.52
-0.29
-0.13
-0.11
-0.22
-0.41
-0.60
-0.74
-0.79
-0.74
-0.58
-0.31
0.04
0.41
0.70
0.86
0.86
0.75
0.59
0.44
0.29
0.14
-0.01
-0.14
-0.20
-0.14
0.02
0.19
0.28
0.25
0.13
0.01
-0.01
0.11
0.34
0.57
0.73
0.81
0.85
0.88
0.91
0.89
0.77
0.56
0.32
0.11
-0.01
-0.07
-0.14
-0.27
-0.46
-0.66
-0.80
-0.83
-0.71
-0.51
-0.26
-0.05
0.10
0.14
0.07
-0.08
-0.24
-0.34
-0.36
-0.30
-0.20
-0.14
-0.15
-0.20
-0.22
-0.15
0.01
0.22
0.42
0.54
0.55
0.46
0.30
0.12
-0.05
-0.15
-0.18
-0.12
-0.04
0.01
0.01
-0.04
-0.07
-0.05
0.02
0.09
0.09
-0.01
-0.20
-0.38
-0.49
-0.46
-0.34
-0.17
-0.03
0.03
0.04
0.03
0.07
0.18
0.35
0.56
0.76
0.91
0.95
0.83
0.52
0.05
-0.52
-1.03
-1.35
-1.39
-1.19
-0.86
-0.55
-0.34
-0.21
-0.09
0.10
0.39
0.69
0.87
0.86
0.68
0.47
0.33
0.34
0.43
0.50
0.44
0.26
0.05
-0.06
0.04
0.32
0.66
0.89
0.90
0.65
0.22
-0.24
-0.58
-0.72
-0.66
-0.48
-0.26
-0.09
0.01
0.06
0.09
0.12
0.12
0.07
-0.08
-0.27
-0.43
-0.46
-0.28
0.07
0.48
0.80
0.88
0.70
0.32
-0.11
-0.46
-0.68
-0.76
-0.76
-0.74
-0.71
-0.66
-0.56
-0.43
-0.30
-0.21
-0.16
-0.12
-0.03
0.14
0.34
0.47
0.44
0.22
-0.12
-0.47
-0.68
-0.67
-0.47
-0.16
0.11
0.24
0.20
0.04
-0.15
-0.25
-0.25
-0.15
-0.01
0.12
0.22
0.29
0.36
0.43
0.47
0.46
0.39
0.26
0.12
-0.00
-0.11
-0.21
-0.33
-0.50
-0.69
-0.82
-0.85
-0.71
-0.44
-0.10
0.22
0.45
0.55
0.54
0.49
0.48
0.53
0.64
0.76
0.80
0.71
0.45
0.11
-0.20
-0.38
-0.38
-0.22
-0.03
0.11
0.14
0.06
-0.04
-0.11
-0.11
-0.07
-0.03
-0.04
-0.12
-0.27
-0.41
-0.48
-0.43
-0.24
0.01
0.24
0.36
0.36
0.24
0.09
-0.04
-0.10
-0.08
-0.00
0.10
0.21
0.31
0.40
0.49
0.57
0.64
0.67
0.65
0.57
0.48
0.39
0.34
0.30
0.26
0.19
0.09
-0.03
-0.16
-0.29
-0.44
-0.63
-0.82
-0.97
-1.03
-1.00
-0.94
-0.91
-0.93
-0.98
-1.00
-0.92
-0.73
-0.46
-0.16
0.13
0.39
0.59
0.71
0.72
0.62
0.44
0.24
0.10
0.04
0.04
0.06
0.02
-0.07
-0.19
-0.28
-0.30
-0.26
-0.18
-0.09
0.03
0.22
0.49
0.79
1.02
1.04
0.77
0.24
-0.39
-0.93
-1.20
-1.13
-0.78
-0.29
0.14
0.39
0.40
0.25
0.07
-0.00
0.08
0.27
0.40
0.37
0.14
-0.18
-0.42
-0.41
-0.11
0.37
0.87
1.20
1.28
1.14
0.88
0.62
0.42
0.32
0.26
0.19
0.04
-0.19
-0.49
-0.83
-1.14
-1.40
-1.58
-1.65
-1.58
-1.34
-0.95
-0.48
-0.02
0.35
0.56
0.63
0.60
0.51
0.40
0.29
0.18
0.09
0.02
-0.01
-0.03
-0.04
-0.05
-0.05
-0.03
0.05
0.15
0.26
0.33
0.35
0.33
0.31
0.33
0.41
0.53
0.63
0.63
0.49
0.21
-0.13
-0.40
-0.49
-0.38
-0.14
0.08
0.15
0.03
-0.20
-0.39
-0.39
-0.18
0.16
0.45
0.56
0.44
0.17
-0.08
-0.20
-0.14
0.01
0.15
0.19
0.11
-0.02
-0.11
-0.13
-0.09
-0.08
-0.15
-0.32
-0.54
-0.72
-0.78
-0.72
-0.58
-0.43
-0.33
-0.27
-0.18
0.01
0.31
0.66
0.93
1.00
0.82
0.42
-0.06
-0.50
-0.78
-0.85
-0.73
-0.49
-0.19
0.10
0.34
0.51
0.64
0.74
0.81
0.84
0.80
0.68
0.48
0.23
-0.05
-0.31
-0.54
-0.72
-0.86
-0.99
-1.13
-1.30
-1.46
-1.51
-1.37
-1.01
-0.50
0.03
0.44
0.62
0.57
0.36
0.11
-0.09
-0.18
-0.15
-0.02
0.16
0.32
0.40
0.37
0.24
0.06
-0.10
-0.20
-0.23
-0.19
-0.12
-0.03
0.06
0.11
0.12
0.06
-0.03
-0.10
-0.09
0.03
0.23
0.44
0.57
0.56
0.40
0.15
-0.11
-0.30
-0.38
-0.32
-0.16
0.05
0.27
0.47
0.63
0.78
0.91
0.99
0.99
0.90
0.73
0.53
0.35
0.24
0.21
0.19
0.16
0.10
0.03
-0.00
0.02
0.09
0.17
0.24
0.30
0.34
0.38
0.39
0.34
0.19
-0.10
-0.47
-0.83
-1.07
-1.12
-0.95
-0.62
-0.24
0.09
0.27
0.27
0.10
-0.18
-0.47
-0.65
-0.66
-0.47
-0.13
0.25
0.56
0.71
0.70
0.61
0.54
0.56
0.68
0.81
0.83
0.65
0.25
-0.26
-0.76
-1.08
-1.13
-0.94
-0.59
-0.22
0.09
0.28
0.36
0.35
0.26
0.11
-0.05
-0.18
-0.21
-0.13
0.03
0.21
0.33
0.39
0.41
0.44
0.52
0.64
0.73
0.70
0.51
0.16
-0.26
-0.66
-0.90
-0.93
-0.78
-0.55
-0.39
-0.40
-0.61
-0.91
-1.11
-1.08
-0.79
-0.33
0.11
0.40
0.51
0.48
0.43
0.42
0.45
0.45
0.37
0.23
0.09
0.06
0.16
0.38
0.62
0.80
0.86
0.82
0.71
0.58
0.47
0.37
0.29
0.22
0.18
0.17
0.19
0.26
0.34
0.39
0.38
0.26
0.08
-0.12
-0.27
-0.34
-0.32
-0.25
-0.19
-0.16
-0.16
-0.18
-0.20
-0.21
-0.21
-0.20
-0.15
-0.09
-0.04
-0.02
-0.02
-0.03
0.00
0.07
0.14
0.16
0.07
-0.13
-0.38
-0.60
-0.72
-0.72
-0.63
-0.51
-0.38
-0.27
-0.16
-0.07
-0.01
0.01
-0.05
-0.16
-0.29
-0.43
-0.54
-0.62
-0.71
-0.83
-0.99
-1.14
-1.22
-1.15
-0.90
-0.47
0.04
0.53
0.87
0.97
0.85
0.57
0.28
0.05
-0.04
-0.04
0.01
0.00
-0.07
-0.19
-0.26
-0.22
-0.02
0.30
0.67
0.97
1.12
1.07
0.85
0.56
0.33
0.26
0.36
0.53
0.66
0.62
0.38
-0.00
-0.41
-0.75
-0.96
-1.04
-1.01
-0.86
-0.60
-0.24
0.09
0.30
0.29
0.08
-0.18
-0.33
-0.29
-0.08
0.15
0.26
0.18
-0.03
-0.22
-0.28
-0.15
0.07
0.27
0.38
0.41
0.43
0.50
0.62
0.72
0.69
0.47
0.10
-0.31
-0.65
-0.81
-0.78
-0.58
-0.25
0.16
0.60
0.99
1.22
1.20
0.90
0.42
-0.08
-0.39
-0.40
-0.14
0.22
0.49
0.52
0.28
-0.13
-0.56
-0.86
-0.94
-0.82
-0.58
-0.31
-0.10
0.01
0.02
-0.02
-0.07
-0.13
-0.18
-0.24
-0.32
-0.39
-0.40
-0.29
-0.04
0.29
0.62
0.85
0.90
0.79
0.59
0.38
0.25
0.19
0.19
0.21
0.24
0.31
0.45
0.60
0.70
0.64
0.37
-0.03
-0.46
-0.79
-0.96
-1.01
-1.01
-1.02
-1.00
-0.88
-0.60
-0.17
0.28
0.60
0.66
0.41
-0.06
-0.60
-1.05
-1.27
-1.19
-0.84
-0.29
0.28
0.72
0.93
0.91
0.74
0.54
0.41
0.35
0.31
0.23
0.11
-0.01
-0.04
0.07
0.30
0.60
0.85
0.95
0.88
0.64
0.26
-0.18
-0.61
-0.92
-1.00
-0.81
-0.36
0.21
0.71
0.97
0.89
0.52
0.02
-0.40
-0.58
-0.49
-0.24
0.01
0.10
-0.00
-0.27
-0.57
-0.80
-0.89
-0.84
-0.71
-0.55
-0.44
-0.37
-0.35
-0.35
-0.38
-0.42
-0.44
-0.42
-0.32
-0.14
0.06
0.22
0.24
0.10
-0.15
-0.38
-0.48
-0.38
-0.10
0.27
0.59
0.79
0.83
0.77
0.66
0.56
0.51
0.54
0.62
0.72
0.79
0.77
0.60
0.30
-0.03
-0.30
-0.41
-0.36
-0.21
-0.07
-0.01
-0.02
-0.08
-0.17
-0.27
-0.39
-0.53
-0.65
-0.67
-0.55
-0.29
0.02
0.27
0.38
0.34
0.24
0.20
0.24
0.31
0.33
0.25
0.08
-0.05
-0.02
0.18
0.48
0.71
0.73
0.53
0.22
-0.03
-0.13
-0.09
-0.04
-0.09
-0.26
-0.43
-0.47
-0.30
0.04
0.40
0.62
0.64
0.47
0.22
-0.00
-0.18
-0.32
-0.46
-0.59
-0.65
-0.59
-0.43
-0.26
-0.17
-0.21
-0.30
-0.37
-0.30
-0.12
0.10
0.24
0.23
0.09
-0.10
-0.25
-0.30
-0.27
-0.19
-0.10
0.00
0.17
0.43
0.77
1.12
1.36
1.40
1.18
0.73
0.19
-0.30
-0.62
-0.73
-0.70
-0.67
-0.74
-0.93
-1.14
-1.25
-1.22
-1.07
-0.90
-0.82
-0.85
-0.91
-0.89
-0.73
-0.44
-0.11
0.13
0.24
0.22
0.17
0.14
0.19
0.27
0.32
0.27
0.11
-0.15
-0.41
-0.56
-0.51
-0.23
0.21
0.67
1.00
1.11
0.97
0.65
0.26
-0.12
-0.42
-0.59
-0.61
-0.44
-0.10
0.33
0.70
0.86
0.69
0.25
-0.34
-0.86
-1.14
-1.13
-0.91
-0.62
-0.38
-0.27
-0.26
-0.28
-0.27
-0.22
-0.14
-0.06
-0.03
-0.04
-0.08
-0.09
-0.03
0.13
0.35
0.53
0.58
0.44
0.14
-0.19
-0.42
-0.44
-0.25
0.04
0.28
0.39
0.36
0.24
0.15
0.15
0.23
0.34
0.41
0.37
0.24
0.04
-0.15
-0.29
-0.35
-0.38
-0.43
-0.51
-0.61
-0.70
-0.72
-0.72
-0.75
-0.88
-1.13
-1.46
-1.73
-1.80
-1.61
-1.13
-0.44
0.36
1.12
1.74
2.11
2.23
2.11
1.88
1.64
1.48
1.43
1.47
1.57
1.71
1.87
2.04
2.17
2.21
2.14
1.99
1.85
1.78
1.78
1.79
1.73
1.55
1.25
0.90
0.60
0.40
0.30
0.25
0.17
0.01
-0.25
-0.56
-0.85
-1.06
-1.16
-1.19
-1.17
-1.14
-1.10
-1.04
-0.95
-0.84
-0.76
-0.74
-0.82
-0.96
-1.14
-1.28
-1.34
-1.27
-1.06
-0.72
-0.30
0.13
0.50
0.75
0.88
0.87
0.77
0.61
0.41
0.22
0.08
0.01
-0.02
-0.05
-0.15
-0.36
-0.67
-1.01
-1.28
-1.41
-1.39
-1.26
-1.08
-0.88
-0.66
-0.40
-0.08
0.28
0.61
0.83
0.86
0.67
0.34
-0.07
-0.43
-0.68
-0.77
-0.70
-0.50
-0.22
0.09
0.36
0.52
0.54
0.42
0.18
-0.15
-0.53
-0.89
-1.18
-1.34
-1.32
-1.12
-0.80
-0.42
-0.09
0.12
0.15
-0.04
-0.41
-0.85
-1.18
-1.24
-0.96
-0.42
0.16
0.53
0.53
0.21
-0.19
-0.37
-0.18
0.35
1.02
1.55
1.76
1.64
1.32
0.98
0.76
0.68
0.69
0.73
0.74
0.75
0.76
0.76
0.69
0.45
-0.01
-0.63
-1.25
-1.69
-1.86
-1.75
-1.46
-1.09
-0.72
-0.34
0.08
0.57
1.10
1.58
1.95
2.12
2.09
1.89
1.57
1.24
0.97
0.83
0.82
0.87
0.88
0.79
0.56
0.27
-0.04
-0.32
-0.56
-0.74
-0.84
-0.77
-0.45
0.09
0.76
1.38
1.76
1.81
1.54
1.08
0.64
0.38
0.38
0.59
0.88
1.06
1.01
0.68
0.15
-0.43
-0.93
-1.30
-1.58
-1.84
-2.11
-2.36
-2.51
-2.47
-2.27
-1.98
-1.73
-1.62
-1.63
-1.67
-1.62
-1.41
-1.06
-0.64
-0.29
-0.09
-0.03
-0.09
-0.21
-0.33
-0.42
-0.44
-0.38
-0.24
-0.02
0.21
0.38
0.46
0.44
0.36
0.28
0.20
0.13
0.06
0.00
0.01
0.11
0.30
0.53
0.69
0.71
0.56
0.30
0.04
-0.10
-0.07
0.12
0.37
0.56
0.63
0.53
0.31
0.09
-0.07
-0.11
-0.06
0.04
0.10
0.11
0.09
0.06
0.05
0.05
-0.00
-0.14
-0.39
-0.71
-1.02
-1.21
-1.17
-0.89
-0.41
0.14
0.59
0.83
0.81
0.60
0.31
0.09
0.01
0.10
0.29
0.51
0.66
0.74
0.72
0.64
0.52
0.37
0.19
-0.01
-0.21
-0.37
-0.44
-0.39
-0.24
-0.01
0.20
0.33
0.35
0.29
0.21
0.16
0.12
0.08
-0.02
-0.20
-0.43
-0.63
-0.71
-0.64
-0.42
-0.13
0.14
0.31
0.33
0.24
0.11
0.02
0.04
0.18
0.40
0.59
0.67
0.57
0.32
-0.00
-0.29
-0.44
-0.42
-0.24
0.03
0.31
0.53
0.65
0.62
0.47
0.23
-0.03
-0.23
-0.26
-0.09
0.25
0.67
1.01
1.15
1.04
0.74
0.39
0.13
0.02
0.01
0.02
-0.07
-0.25
-0.46
-0.56
-0.49
-0.27
-0.02
0.11
0.03
-0.23
-0.51
-0.67
-0.63
-0.43
-0.20
-0.09
-0.17
-0.37
-0.57
-0.60
-0.43
-0.13
0.14
0.23
0.10
-0.17
-0.41
-0.48
-0.35
-0.12
0.04
0.03
-0.14
-0.34
-0.43
-0.34
-0.13
0.05
0.04
-0.18
-0.52
-0.84
-0.99
-0.94
-0.74
-0.46
-0.15
0.13
0.36
0.54
0.64
0.70
0.75
0.85
1.01
1.16
1.21
1.06
0.73
0.36
0.11
0.12
0.37
0.71
0.94
0.88
0.50
-0.08
-0.67
-1.11
-1.34
-1.41
-1.42
-1.45
-1.50
-1.53
-1.47
-1.29
-1.04
-0.83
-0.75
-0.85
-1.09
-1.38
-1.63
-1.78
-1.85
-1.89
-1.94
-1.96
-1.90
-1.71
-1.39
-0.99
-0.62
-0.29
0.05
0.57
1.39
2.52
3.82
5.05
5.94
6.35
6.31
5.93
5.40
4.81
4.17
3.45
2.66
1.83
1.05
0.40
-0.09
-0.49
-0.87
-1.27
-1.65
-1.93
-2.00
-1.81
-1.39
-0.88
-0.46
-0.27
-0.39
-0.77
-1.28
-1.73
-1.91
-1.69
-1.06
-0.14
0.84
1.64
2.08
2.10
1.78
1.33
0.93
0.70
0.63
0.61
0.52
0.30
-0.03
-0.38
-0.67
-0.85
-0.91
-0.89
-0.85
-0.82
-0.81
-0.81
-0.83
-0.88
-0.98
-1.13
-1.30
-1.47
-1.60
-1.68
-1.69
-1.61
-1.40
-1.05
-0.58
-0.09
0.30
0.49
0.46
0.26
0.07
0.02
0.18
0.50
0.85
1.07
1.11
0.96
0.72
0.48
0.29
0.18
0.15
0.16
0.20
0.22
0.20
0.11
-0.06
-0.29
-0.55
-0.78
-0.93
-0.99
-0.95
-0.83
-0.66
-0.48
-0.34
-0.26
-0.28
-0.40
-0.58
-0.74
-0.76
-0.58
-0.20
0.27
0.67
0.84
0.73
0.43
0.09
-0.15
-0.21
-0.12
0.03
0.20
0.37
0.59
0.89
1.21
1.44
1.46
1.19
0.66
0.01
-0.57
-0.87
-0.82
-0.45
0.08
0.56
0.82
0.77
0.49
0.12
-0.20
-0.38
-0.44
-0.43
-0.44
-0.50
-0.58
-0.63
-0.62
-0.56
-0.51
-0.54
-0.66
-0.84
-0.97
-1.00
-0.88
-0.67
-0.42
-0.23
-0.12
-0.06
0.00
0.10
0.21
0.28
0.26
0.12
-0.06
-0.20
-0.21
-0.05
0.24
0.56
0.81
0.92
0.91
0.82
0.75
0.72
0.74
0.74
0.66
0.48
0.26
0.11
0.11
0.26
0.46
0.59
0.55
0.30
-0.08
-0.47
-0.77
-0.95
-0.98
-0.93
-0.83
-0.74
-0.68
-0.66
-0.67
-0.67
-0.61
-0.44
-0.17
0.17
0.47
0.65
0.67
0.54
0.34
0.14
0.01
-0.04
-0.06
-0.12
-0.22
-0.32
-0.35
-0.23
-0.00
0.25
0.39
0.36
0.16
-0.09
-0.27
-0.28
-0.07
0.31
0.75
1.11
1.26
1.14
0.79
0.30
-0.19
-0.55
-0.73
-0.77
-0.72
-0.64
-0.57
-0.50
-0.43
-0.39
-0.38
-0.41
-0.46
-0.45
-0.35
-0.13
0.18
0.49
0.67
0.65
0.43
0.14
-0.09
-0.15
-0.05
0.13
0.29
0.37
0.38
0.36
0.35
0.30
0.16
-0.12
-0.47
-0.77
-0.89
-0.80
-0.55
-0.27
-0.07
0.01
0.02
0.03
0.08
0.13
0.14
0.11
0.09
0.13
0.23
0.30
0.22
-0.07
-0.45
-0.72
-0.64
-0.16
0.59
1.29
1.66
1.55
1.07
0.47
0.03
-0.12
-0.02
0.16
0.30
0.32
0.25
0.16
0.09
0.07
0.08
0.14
0.25
0.38
0.51
0.56
0.47
0.20
-0.18
-0.57
-0.86
-0.95
-0.86
-0.63
-0.38
-0.19
-0.13
-0.22
-0.40
-0.60
-0.72
-0.70
-0.54
-0.30
-0.04
0.21
0.42
0.59
0.70
0.74
0.69
0.56
0.38
0.19
0.05
-0.01
-0.01
0.02
0.04
0.03
-0.02
-0.11
-0.24
-0.43
-0.67
-0.94
-1.21
-1.39
-1.41
-1.24
-0.91
-0.53
-0.26
-0.23
-0.48
-0.96
-1.55
-2.11
-2.56
-2.86
-2.99
-2.97
-2.81
-2.54
-2.24
-2.02
-1.98
-2.15
-2.47
-2.83
-3.14
-3.39
-3.68
-4.12
-4.77
-5.52
-6.17
-6.54
-6.58
-6.44
-6.37
-6.52
-6.92
-7.40
-7.71
-7.72
-7.47
-7.16
-7.06
-7.39
-8.17
-9.27
-10.36
-11.08
-11.15
-10.50
-9.31
-7.97
-6.92
-6.52
-6.98
-8.38
-10.65
-13.56
-16.50
-18.55
-18.65
-15.99
-10.46
-2.76
5.81
13.87
20.36
24.86
27.40
28.31
27.94
26.60
24.70
22.71
21.12
20.27
20.15
20.47
20.79
20.84
20.55
20.12
19.86
20.01
20.60
21.41
22.08
22.31
21.98
21.25
20.48
20.10
20.48
21.82
24.11
27.06
30.02
32.03
31.94
28.83
22.37
13.12
2.47
-7.81
-16.13
-21.65
-24.39
-25.04
-24.51
-23.52
-22.43
-21.30
-20.13
-18.96
-17.94
-17.20
-16.76
-16.47
-16.10
-15.42
-14.36
-13.04
-11.70
-10.62
-9.93
-9.62
-9.47
-9.22
-8.66
-7.74
-6.58
-5.43
-4.50
-3.92
-3.68
-3.62
-3.56
-3.33
-2.84
-2.13
-1.31
-0.56
0.01
0.33
0.44
0.45
0.45
0.47
0.52
0.53
0.49
0.43
0.39
0.42
0.52
0.61
0.63
0.57
0.46
0.38
0.35
0.36
0.34
0.23
-0.00
-0.28
-0.50
-0.54
-0.36
0.01
0.41
0.71
0.81
0.71
0.53
0.39
0.36
0.41
0.42
0.29
-0.00
-0.37
-0.66
-0.76
-0.63
-0.35
-0.06
0.14
0.19
0.14
0.06
0.01
0.02
0.08
0.13
0.12
0.04
-0.09
-0.19
-0.22
-0.15
0.01
0.17
0.28
0.29
0.20
0.05
-0.11
-0.23
-0.31
-0.34
-0.32
-0.28
-0.23
-0.18
-0.16
-0.19
-0.26
-0.34
-0.42
-0.45
-0.47
-0.51
-0.65
-0.91
-1.27
-1.60
-1.75
-1.63
-1.23
-0.67
-0.12
0.27
0.44
0.42
0.29
0.12
-0.07
-0.26
-0.44
-0.53
-0.48
-0.29
-0.05
0.11
0.08
-0.15
-0.47
-0.72
-0.74
-0.50
-0.09
0.27
0.41
0.27
-0.09
-0.50
-0.79
-0.90
-0.85
-0.71
-0.51
-0.25
0.09
0.48
0.86
1.13
1.25
1.27
1.29
1.41
1.61
1.77
1.76
1.50
1.07
0.61
0.25
0.10
0.12
0.26
0.43
0.61
0.76
0.86
0.88
0.76
0.48
0.09
-0.33
-0.66
-0.81
-0.77
-0.56
-0.30
-0.09
0.01
-0.01
-0.15
-0.35
-0.58
-0.80
-1.00
-1.12
-1.13
-1.00
-0.76
-0.48
-0.23
-0.08
-0.06
-0.15
-0.29
-0.41
-0.44
-0.36
-0.20
-0.02
0.09
0.09
0.02
-0.07
-0.09
-0.04
0.07
0.15
0.16
0.08
-0.06
-0.18
-0.22
-0.14
0.04
0.25
0.41
0.44
0.30
0.05
-0.24
-0.43
-0.45
-0.30
-0.07
0.17
0.38
0.56
0.76
0.96
1.09
1.02
0.70
0.20
-0.32
-0.63
-0.63
-0.36
0.02
0.28
0.32
0.13
-0.15
-0.36
-0.40
-0.25
-0.01
0.23
0.39
0.45
0.42
0.35
0.26
0.20
0.18
0.15
0.08
-0.06
-0.27
-0.49
-0.62
-0.60
-0.44
-0.23
-0.07
-0.05
-0.16
-0.29
-0.31
-0.19
0.06
0.32
0.50
0.58
0.58
0.58
0.61
0.63
0.59
0.44
0.20
-0.05
-0.22
-0.28
-0.23
-0.16
-0.13
-0.18
-0.30
-0.45
-0.58
-0.63
-0.60
-0.48
-0.31
-0.15
-0.01
0.12
0.25
0.43
0.65
0.87
0.97
0.88
0.57
0.13
-0.32
-0.64
-0.76
-0.67
-0.46
-0.25
-0.13
-0.18
-0.39
-0.70
-0.98
-1.09
-0.95
-0.57
-0.07
0.35
0.56
0.50
0.29
0.07
-0.02
0.04
0.17
0.23
0.16
0.00
-0.14
-0.14
0.03
0.32
0.63
0.84
0.91
0.85
0.71
0.52
0.32
0.10
-0.13
-0.35
-0.53
-0.64
-0.67
-0.62
-0.52
-0.40
-0.27
-0.13
-0.00
0.11
0.17
0.17
0.11
0.01
-0.08
-0.13
-0.12
-0.05
0.09
0.31
0.60
0.93
1.24
1.47
1.60
1.64
1.62
1.55
1.41
1.08
0.49
-0.37
-1.40
-2.39
-3.12
-3.41
-3.20
-2.52
-1.49
-0.27
0.93
1.89
2.38
2.28
1.63
0.63
-0.39
-1.12
-1.35
-1.09
-0.51
0.15
0.68
0.97
0.99
0.83
0.56
0.27
0.02
-0.18
-0.28
-0.27
-0.15
0.06
0.29
0.43
0.39
0.18
-0.13
-0.38
-0.45
-0.31
-0.01
0.33
0.63
0.83
0.91
0.83
0.57
0.12
-0.42
-0.89
-1.13
-1.03
-0.65
-0.15
0.31
0.59
0.66
0.58
0.38
0.07
-0.30
-0.67
-0.89
-0.86
-0.55
-0.06
0.40
0.63
0.52
0.15
-0.31
-0.66
-0.77
-0.65
-0.42
-0.22
-0.15
-0.26
-0.46
-0.63
-0.66
-0.49
-0.18
0.10
0.22
0.08
-0.25
-0.64
-0.93
-1.02
-0.93
-0.76
-0.60
-0.49
-0.39
-0.22
0.06
0.40
0.69
0.83
0.73
0.43
0.00
-0.48
-0.95
-1.35
-1.64
-1.79
-1.78
-1.60
-1.28
-0.86
-0.41
0.02
0.37
0.63
0.78
0.83
0.83
0.86
0.99
1.20
1.42
1.49
1.34
1.01
0.63
0.39
0.42
0.71
1.13
1.52
1.73
1.76
1.64
1.44
1.19
0.84
0.36
-0.23
-0.85
-1.35
-1.63
-1.62
-1.37
-0.97
-0.56
-0.23
-0.03
0.02
-0.09
-0.31
-0.58
-0.81
-0.89
-0.74
-0.40
0.05
0.45
0.66
0.66
0.47
0.22
-0.01
-0.18
-0.27
-0.34
-0.40
-0.49
-0.57
-0.63
-0.64
-0.56
-0.36
-0.07
0.27
0.58
0.76
0.81
0.73
0.60
0.47
0.36
0.25
0.09
-0.12
-0.34
-0.49
-0.49
-0.30
0.02
0.36
0.59
0.61
0.43
0.14
-0.13
-0.25
-0.18
0.06
0.38
0.67
0.86
0.89
0.74
0.40
-0.08
-0.60
-1.04
-1.24
-1.13
-0.75
-0.25
0.16
0.34
0.25
-0.01
-0.28
-0.37
-0.18
0.29
0.92
1.55
2.00
2.14
1.97
1.57
1.09
0.66
0.36
0.16
-0.05
-0.32
-0.67
-0.97
-1.10
-0.95
-0.58
-0.12
0.22
0.34
0.23
0.02
-0.17
-0.27
-0.28
-0.26
-0.22
-0.16
-0.05
0.13
0.31
0.41
0.35
0.14
-0.15
-0.45
-0.66
-0.73
-0.66
-0.49
-0.29
-0.12
-0.03
-0.05
-0.16
-0.30
-0.40
-0.41
-0.32
-0.14
0.07
0.24
0.35
0.35
0.24
0.05
-0.15
-0.31
-0.38
-0.37
-0.33
-0.31
-0.33
-0.40
-0.50
-0.58
-0.64
-0.63
-0.53
-0.31
0.05
0.50
0.93
1.18
1.16
0.85
0.35
-0.17
-0.53
-0.66
-0.60
-0.44
-0.26
-0.11
0.00
0.06
0.04
-0.08
-0.28
-0.48
-0.58
-0.50
-0.22
0.20
0.64
1.01
1.27
1.39
1.39
1.28
1.08
0.81
0.51
0.21
-0.08
-0.33
-0.53
-0.65
-0.64
-0.50
-0.27
-0.04
0.08
0.04
-0.15
-0.39
-0.59
-0.68
-0.68
-0.67
-0.74
-0.91
-1.11
-1.24
-1.21
-0.98
-0.63
-0.25
0.05
0.26
0.39
0.49
0.56
0.60
0.57
0.49
0.39
0.31
0.27
0.25
0.26
0.27
0.32
0.40
0.52
0.64
0.75
0.84
0.88
0.83
0.62
0.21
-0.37
-0.97
-1.37
-1.44
-1.15
-0.66
-0.19
0.08
0.13
0.07
0.08
0.23
0.49
0.74
0.86
0.79
0.59
0.35
0.17
0.06
0.00
-0.05
-0.11
-0.17
-0.21
-0.18
-0.11
-0.05
-0.05
-0.14
-0.31
-0.50
-0.66
-0.74
-0.72
-0.60
-0.38
-0.08
0.23
0.48
0.59
0.55
0.39
0.21
0.11
0.11
0.16
0.14
0.01
-0.23
-0.45
-0.53
-0.43
-0.20
0.00
0.08
-0.01
-0.18
-0.34
-0.38
-0.30
-0.12
0.08
0.24
0.29
0.23
0.07
-0.18
-0.42
-0.60
-0.63
-0.53
-0.35
-0.19
-0.10
-0.09
-0.09
-0.02
0.15
0.40
0.64
0.80
0.83
0.70
0.45
0.14
-0.14
-0.35
-0.42
-0.38
-0.24
-0.05
0.18
0.42
0.64
0.80
0.82
0.68
0.44
0.18
0.01
-0.04
-0.01
0.01
-0.04
-0.15
-0.25
-0.29
-0.24
-0.15
-0.08
-0.05
-0.05
-0.04
0.00
0.08
0.15
0.18
0.19
0.17
0.14
0.09
-0.02
-0.22
-0.51
-0.79
-0.97
-0.93
-0.65
-0.21
0.25
0.57
0.67
0.56
0.34
0.15
0.04
0.02
0.04
0.06
0.08
0.14
0.25
0.41
0.52
0.50
0.30
-0.04
-0.40
-0.61
-0.57
-0.28
0.16
0.55
0.75
0.71
0.46
0.15
-0.12
-0.25
-0.27
-0.21
-0.11
-0.00
0.11
0.24
0.33
0.34
0.26
0.10
-0.08
-0.22
-0.28
-0.26
-0.19
-0.15
-0.19
-0.35
-0.60
-0.89
-1.11
-1.16
-0.99
-0.64
-0.21
0.16
0.35
0.36
0.27
0.18
0.18
0.27
0.41
0.54
0.65
0.72
0.77
0.78
0.76
0.67
0.53
0.35
0.15
-0.09
-0.38
-0.75
-1.15
-1.51
-1.73
-1.72
-1.48
-1.05
-0.56
-0.12
0.20
0.37
0.40
0.36
0.28
0.19
0.05
-0.13
-0.34
-0.51
-0.55
-0.40
-0.10
0.24
0.48
0.49
0.30
-0.01
-0.24
-0.26
-0.03
0.39
0.86
1.24
1.44
1.46
1.35
1.17
0.96
0.75
0.53
0.29
0.04
-0.17
-0.30
-0.36
-0.39
-0.44
-0.55
-0.71
-0.86
-0.89
-0.75
-0.46
-0.10
0.21
0.41
0.47
0.42
0.31
0.18
0.07
-0.01
-0.06
-0.06
-0.04
-0.02
-0.03
-0.07
-0.10
-0.09
-0.03
0.05
0.10
0.04
-0.12
-0.32
-0.45
-0.41
-0.19
0.15
0.46
0.63
0.59
0.36
0.04
-0.27
-0.51
-0.65
-0.70
-0.66
-0.54
-0.38
-0.19
-0.03
0.08
0.15
0.24
0.38
0.59
0.81
0.97
0.99
0.88
0.68
0.45
0.23
0.03
-0.15
-0.27
-0.26
-0.09
0.23
0.56
0.76
0.68
0.31
-0.23
-0.78
-1.14
-1.20
-1.00
-0.64
-0.27
-0.03
-0.01
-0.19
-0.50
-0.79
-0.95
-0.94
-0.81
-0.65
-0.55
-0.54
-0.56
-0.52
-0.39
-0.19
0.01
0.15
0.21
0.23
0.27
0.38
0.51
0.60
0.58
0.47
0.37
0.38
0.53
0.75
0.91
0.88
0.61
0.20
-0.20
-0.42
-0.39
-0.18
0.10
0.33
0.47
0.52
0.51
0.45
0.32
0.09
-0.24
-0.61
-0.90
-1.02
-0.93
-0.65
-0.31
-0.02
0.13
0.12
-0.01
-0.18
-0.31
-0.38
-0.35
-0.24
-0.05
0.22
0.54
0.88
1.15
1.25
1.12
0.78
0.33
-0.10
-0.38
-0.46
-0.34
-0.12
0.11
0.26
0.29
0.19
0.01
-0.18
-0.30
-0.32
-0.23
-0.06
0.11
0.20
0.20
0.09
-0.07
-0.24
-0.40
-0.51
-0.55
-0.51
-0.37
-0.15
0.09
0.30
0.42
0.44
0.37
0.24
0.08
-0.09
-0.25
-0.37
-0.41
-0.37
-0.26
-0.11
0.02
0.10
0.14
0.17
0.20
0.22
0.21
0.14
-0.00
-0.15
-0.22
-0.16
0.06
0.38
0.66
0.77
0.63
0.27
-0.18
-0.55
-0.71
-0.64
-0.45
-0.29
-0.26
-0.33
-0.43
-0.45
-0.37
-0.28
-0.26
-0.38
-0.58
-0.69
-0.56
-0.16
0.43
1.01
1.38
1.44
1.21
0.82
0.39
0.06
-0.14
-0.18
-0.11
0.00
0.09
0.09
-0.01
-0.19
-0.38
-0.52
-0.58
-0.56
-0.48
-0.32
-0.07
0.32
0.81
1.27
1.52
1.45
1.04
0.44
-0.13
-0.47
-0.51
-0.33
-0.05
0.18
0.29
0.29
0.20
0.06
-0.14
-0.38
-0.62
-0.76
-0.75
-0.58
-0.33
-0.15
-0.15
-0.35
-0.65
-0.87
-0.85
-0.56
-0.12
0.26
0.41
0.28
-0.02
-0.29
-0.40
-0.32
-0.11
0.11
0.25
0.29
0.29
0.29
0.31
0.33
0.31
0.25
0.14
0.02
-0.10
-0.22
-0.34
-0.43
-0.47
-0.41
-0.22
0.06
0.39
0.68
0.82
0.79
0.59
0.33
0.10
-0.01
0.03
0.15
0.30
0.41
0.47
0.49
0.51
0.52
0.51
0.44
0.29
0.06
-0.20
-0.44
-0.60
-0.64
-0.56
-0.39
-0.23
-0.12
-0.13
-0.21
-0.30
-0.34
-0.28
-0.15
0.03
0.19
0.33
0.44
0.49
0.46
0.32
0.08
-0.19
-0.41
-0.50
-0.47
-0.38
-0.32
-0.35
-0.46
-0.59
-0.69
-0.72
-0.71
-0.68
-0.63
-0.53
-0.34
-0.06
0.25
0.51
0.61
0.54
0.34
0.11
-0.01
0.00
0.12
0.23
0.24
0.11
-0.10
-0.27
-0.31
-0.17
0.10
0.41
0.67
0.85
0.93
0.94
0.89
0.74
0.50
0.18
-0.14
-0.38
-0.48
-0.48
-0.45
-0.44
-0.49
-0.54
-0.52
-0.38
-0.16
0.06
0.18
0.15
-0.02
-0.23
-0.38
-0.39
-0.26
-0.04
0.20
0.41
0.52
0.51
0.38
0.14
-0.18
-0.48
-0.70
-0.78
-0.70
-0.52
-0.32
-0.15
-0.03
0.07
0.18
0.29
0.37
0.37
0.29
0.20
0.18
0.27
0.41
0.49
0.40
0.12
-0.26
-0.59
-0.73
-0.61
-0.30
0.08
0.41
0.61
0.68
0.66
0.62
0.59
0.55
0.50
0.40
0.30
0.25
0.32
0.54
0.83
1.06
1.08
0.86
0.47
0.06
-0.22
-0.30
-0.22
-0.09
-0.02
-0.06
-0.19
-0.34
-0.47
-0.56
-0.61
-0.64
-0.67
-0.73
-0.81
-0.93
-1.03
-1.07
-0.99
-0.77
-0.43
-0.05
0.29
0.54
0.69
0.76
0.77
0.75
0.70
0.62
0.55
0.52
0.57
0.67
0.77
0.79
0.69
0.49
0.24
0.02
-0.13
-0.21
-0.23
-0.23
-0.20
-0.12
-0.00
0.13
0.21
0.17
-0.03
-0.32
-0.60
-0.76
-0.73
-0.58
-0.42
-0.38
-0.49
-0.69
-0.82
-0.78
-0.53
-0.16
0.20
0.41
0.44
0.32
0.12
-0.11
-0.34
-0.53
-0.66
-0.68
-0.57
-0.36
-0.14
0.01
0.03
-0.05
-0.14
-0.15
-0.05
0.16
0.41
0.64
0.80
0.82
0.71
0.46
0.14
-0.18
-0.40
-0.47
-0.37
-0.15
0.08
0.23
0.26
0.18
0.04
-0.06
-0.07
0.04
0.25
0.50
0.70
0.80
0.79
0.71
0.59
0.44
0.24
-0.03
-0.35
-0.64
-0.80
-0.75
-0.52
-0.18
0.11
0.24
0.18
-0.02
-0.22
-0.34
-0.31
-0.18
-0.03
0.06
0.05
-0.05
-0.19
-0.32
-0.38
-0.37
-0.30
-0.18
-0.02
0.21
0.47
0.71
0.88
0.92
0.78
0.51
0.19
-0.08
-0.20
-0.14
0.06
0.31
0.50
0.55
0.44
0.22
-0.03
-0.25
-0.41
-0.49
-0.50
-0.44
-0.31
-0.13
0.04
0.15
0.12
-0.04
-0.27
-0.49
-0.64
-0.68
-0.66
-0.65
-0.68
-0.75
-0.77
-0.66
-0.35
0.10
0.57
0.91
1.00
0.83
0.50
0.13
-0.13
-0.25
-0.25
-0.20
-0.15
-0.13
-0.09
-0.04
0.05
0.14
0.16
0.08
-0.07
-0.25
-0.36
-0.38
-0.32
-0.24
-0.15
-0.08
0.01
0.14
0.31
0.48
0.62
0.69
0.68
0.64
0.57
0.47
0.29
0.03
-0.29
-0.58
-0.73
-0.72
-0.55
-0.33
-0.17
-0.12
-0.19
-0.32
-0.45
-0.50
-0.47
-0.35
-0.13
0.17
0.50
0.77
0.87
0.70
0.28
-0.26
-0.74
-1.02
-1.02
-0.82
-0.55
-0.33
-0.21
-0.15
-0.06
0.09
0.29
0.47
0.56
0.54
0.47
0.44
0.53
0.75
1.04
1.25
1.30
1.15
0.85
0.48
0.14
-0.15
-0.40
-0.63
-0.83
-0.95
-0.93
-0.73
-0.43
-0.12
0.08
0.14
0.12
0.11
0.16
0.27
0.38
0.41
0.34
0.19
0.05
-0.05
-0.08
-0.09
-0.11
-0.18
-0.24
-0.24
-0.13
0.07
0.28
0.41
0.37
0.17
-0.14
-0.46
-0.71
-0.83
-0.83
-0.71
-0.51
-0.23
0.07
0.35
0.54
0.58
0.47
0.28
0.14
0.19
0.45
0.84
1.20
1.33
1.12
0.64
0.04
-0.46
-0.72
-0.72
-0.54
-0.27
-0.03
0.16
0.27
0.28
0.19
0.01
-0.21
-0.40
-0.49
-0.47
-0.35
-0.19
-0.02
0.12
0.21
0.23
0.17
0.02
-0.20
-0.42
-0.57
-0.59
-0.49
-0.33
-0.20
-0.14
-0.19
-0.29
-0.38
-0.39
-0.29
-0.11
0.09
0.23
0.31
0.34
0.36
0.39
0.42
0.40
0.31
0.15
-0.03
-0.18
-0.24
-0.21
-0.10
0.04
0.20
0.38
0.55
0.67
0.69
0.54
0.23
-0.17
-0.52
-0.69
-0.59
-0.24
0.22
0.67
0.97
1.11
1.09
0.98
0.79
0.53
0.22
-0.10
-0.33
-0.41
-0.30
-0.06
0.21
0.41
0.49
0.47
0.37
0.20
-0.06
-0.43
-0.88
-1.33
-1.64
-1.69
-1.47
-1.06
-0.59
-0.22
-0.04
-0.02
-0.13
-0.28
-0.42
-0.52
-0.57
-0.58
-0.56
-0.50
-0.39
-0.25
-0.13
-0.10
-0.18
-0.37
-0.58
-0.72
-0.70
-0.48
-0.12
0.27
0.57
0.70
0.64
0.45
0.24
0.14
0.25
0.55
0.94
1.27
1.37
1.18
0.78
0.36
0.07
0.01
0.10
0.19
0.18
0.03
-0.15
-0.26
-0.25
-0.16
-0.08
-0.08
-0.17
-0.27
-0.28
-0.16
0.07
0.29
0.43
0.45
0.38
0.27
0.15
0.04
-0.05
-0.11
-0.10
-0.01
0.15
0.33
0.49
0.57
0.58
0.54
0.48
0.43
0.39
0.33
0.23
0.09
-0.05
-0.16
-0.21
-0.22
-0.21
-0.22
-0.25
-0.30
-0.32
-0.30
-0.22
-0.13
-0.09
-0.16
-0.33
-0.52
-0.64
-0.62
-0.48
-0.27
-0.08
0.05
0.11
0.13
0.16
0.21
0.25
0.29
0.31
0.31
0.29
0.24
0.16
0.06
-0.06
-0.14
-0.18
-0.17
-0.14
-0.14
-0.17
-0.24
-0.32
-0.37
-0.39
-0.38
-0.37
-0.39
-0.45
-0.52
-0.55
-0.49
-0.34
-0.16
-0.06
-0.15
-0.45
-0.86
-1.22
-1.34
-1.15
-0.69
-0.15
0.31
0.55
0.57
0.47
0.36
0.31
0.32
0.35
0.37
0.39
0.45
0.58
0.81
1.09
1.33
1.44
1.37
1.10
0.70
0.30
0.01
-0.11
-0.05
0.06
0.10
0.02
-0.16
-0.33
-0.41
-0.36
-0.26
-0.20
-0.24
-0.34
-0.42
-0.42
-0.33
-0.22
-0.18
-0.25
-0.37
-0.45
-0.40
-0.19
0.17
0.60
1.00
1.24
1.26
1.04
0.61
0.09
-0.39
-0.73
-0.86
-0.79
-0.59
-0.33
-0.07
0.12
0.22
0.25
0.21
0.13
0.03
-0.08
-0.17
-0.22
-0.18
-0.04
0.18
0.36
0.36
0.12
-0.33
-0.81
-1.13
-1.12
-0.79
-0.27
0.21
0.50
0.55
0.42
0.26
0.19
0.25
0.41
0.58
0.67
0.64
0.51
0.33
0.16
0.01
-0.13
-0.33
-0.58
-0.82
-0.95
-0.88
-0.59
-0.19
0.15
0.29
0.15
-0.20
-0.66
-1.09
-1.40
-1.54
-1.47
-1.20
-0.78
-0.30
0.10
0.31
0.31
0.18
0.05
0.04
0.14
0.28
0.36
0.35
0.34
0.45
0.78
1.25
1.71
1.92
1.78
1.34
0.78
0.34
0.14
0.14
0.19
0.17
-0.00
-0.26
-0.47
-0.53
-0.39
-0.13
0.13
0.29
0.32
0.26
0.18
0.14
0.18
0.27
0.41
0.55
0.64
0.65
0.57
0.44
0.30
0.18
0.07
-0.06
-0.24
-0.46
-0.64
-0.72
-0.68
-0.58
-0.52
-0.59
-0.77
-0.95
-0.99
-0.82
-0.50
-0.17
0.00
-0.04
-0.23
-0.41
-0.44
-0.28
0.02
0.30
0.46
0.44
0.27
0.06
-0.11
-0.18
-0.15
-0.08
-0.03
-0.05
-0.15
-0.29
-0.39
-0.35
-0.15
0.19
0.58
0.93
1.17
1.28
1.27
1.15
0.92
0.59
0.21
-0.13
-0.36
-0.46
-0.45
-0.42
-0.42
-0.45
-0.48
-0.45
-0.37
-0.26
-0.13
-0.00
0.18
0.43
0.71
0.91
0.90
0.59
0.04
-0.59
-1.08
-1.25
-1.06
-0.60
-0.01
0.51
0.86
0.96
0.82
0.46
0.02
-0.40
-0.66
-0.67
-0.45
-0.08
0.28
0.54
0.62
0.54
0.37
0.20
0.09
0.07
0.08
0.07
-0.02
-0.19
-0.39
-0.54
-0.56
-0.43
-0.21
0.06
0.30
0.51
0.71
0.90
1.06
1.12
1.04
0.84
0.57
0.33
0.17
0.09
0.06
0.03
0.00
-0.02
0.00
0.05
0.09
0.11
0.12
0.11
0.09
0.06
-0.03
-0.20
-0.42
-0.67
-0.87
-0.97
-0.96
-0.81
-0.57
-0.26
0.11
0.47
0.77
0.96
0.97
0.80
0.46
0.04
-0.38
-0.67
-0.77
-0.63
-0.33
0.02
0.29
0.40
0.33
0.17
0.01
-0.07
-0.04
0.07
0.18
0.20
0.09
-0.12
-0.36
-0.52
-0.56
-0.48
-0.33
-0.20
-0.13
-0.12
-0.12
-0.08
0.01
0.07
0.03
-0.16
-0.46
-0.79
-1.04
-1.14
-1.10
-0.95
-0.75
-0.53
-0.32
-0.12
0.06
0.21
0.33
0.38
0.37
0.30
0.18
0.06
-0.03
-0.06
-0.02
0.10
0.24
0.37
0.45
0.48
0.49
0.49
0.47
0.40
0.25
0.01
-0.29
-0.58
-0.76
-0.79
-0.63
-0.31
0.11
0.54
0.87
1.02
0.96
0.70
0.33
-0.06
-0.37
-0.59
-0.72
-0.79
-0.83
-0.81
-0.71
-0.50
-0.24
0.01
0.16
0.21
0.19
0.21
0.32
0.52
0.71
0.78
0.64
0.29
-0.16
-0.56
-0.80
-0.84
-0.73
-0.54
-0.37
-0.27
-0.24
-0.30
-0.42
-0.61
-0.81
-0.99
-1.08
-1.01
-0.76
-0.37
0.04
0.40
0.62
0.71
0.73
0.76
0.83
0.95
1.05
1.07
0.98
0.82
0.63
0.48
0.35
0.22
0.04
-0.18
-0.38
-0.45
-0.32
-0.01
0.38
0.68
0.78
0.65
0.40
0.15
-0.02
-0.09
-0.10
-0.10
-0.11
-0.07
0.04
0.23
0.42
0.53
0.48
0.28
-0.01
-0.32
-0.59
-0.78
-0.88
-0.85
-0.69
-0.45
-0.20
-0.04
-0.04
-0.19
-0.41
-0.57
-0.55
-0.33
0.03
0.39
0.60
0.56
0.28
-0.12
-0.49
-0.70
-0.69
-0.53
-0.34
-0.22
-0.24
-0.34
-0.43
-0.44
-0.36
-0.22
-0.11
-0.07
-0.13
-0.23
-0.33
-0.38
-0.36
-0.26
-0.11
0.09
0.27
0.42
0.49
0.49
0.45
0.41
0.38
0.36
0.34
0.32
0.30
0.28
0.29
0.30
0.26
0.17
0.04
-0.04
0.01
0.25
0.59
0.92
1.04
0.89
0.51
0.09
-0.15
-0.10
0.19
0.54
0.77
0.74
0.48
0.11
-0.24
-0.47
-0.54
-0.50
-0.36
-0.18
0.01
0.15
0.19
0.09
-0.12
-0.39
-0.61
-0.70
-0.67
-0.55
-0.43
-0.36
-0.35
-0.31
-0.16
0.13
0.52
0.88
1.11
1.11
0.91
0.61
0.31
0.12
0.04
0.05
0.06
0.05
0.01
-0.04
-0.08
-0.13
-0.19
-0.28
-0.38
-0.43
-0.39
-0.25
-0.01
0.25
0.48
0.68
0.84
0.96
1.02
0.97
0.77
0.42
-0.02
-0.46
-0.81
-0.99
-1.00
-0.87
-0.68
-0.52
-0.44
-0.49
-0.64
-0.84
-1.00
-1.07
-1.01
-0.84
-0.61
-0.36
-0.14
0.01
0.10
0.14
0.12
0.08
0.01
-0.05
-0.05
0.07
0.33
0.70
1.09
1.38
1.45
1.25
0.79
0.20
-0.35
-0.74
-0.91
-0.89
-0.78
-0.68
-0.64
-0.63
-0.58
-0.42
-0.19
0.03
0.16
0.15
0.06
0.01
0.05
0.18
0.31
0.34
0.21
-0.04
-0.31
-0.49
-0.53
-0.44
-0.28
-0.09
0.09
0.24
0.34
0.39
0.38
0.35
0.34
0.40
0.54
0.71
0.84
0.87
0.77
0.58
0.34
0.12
-0.07
-0.25
-0.43
-0.58
-0.66
-0.63
-0.48
-0.28
-0.12
-0.05
-0.10
-0.20
-0.28
-0.28
-0.20
-0.08
0.03
0.11
0.17
0.22
0.26
0.28
0.26
0.25
0.28
0.39
0.53
0.62
0.60
0.42
0.15
-0.09
-0.21
-0.19
-0.10
-0.04
-0.09
-0.22
-0.37
-0.42
-0.35
-0.20
-0.04
0.02
-0.08
-0.33
-0.66
-0.94
-1.07
-0.98
-0.72
-0.37
-0.07
0.10
0.13
0.08
0.06
0.14
0.36
0.66
0.98
1.23
1.35
1.32
1.14
0.84
0.48
0.13
-0.12
-0.21
-0.14
0.04
0.24
0.35
0.32
0.17
-0.04
-0.23
-0.37
-0.46
-0.54
-0.67
-0.80
-0.86
-0.80
-0.60
-0.34
-0.12
-0.03
-0.08
-0.19
-0.27
-0.23
-0.11
0.04
0.18
0.28
0.38
0.49
0.61
0.67
0.63
0.47
0.24
0.04
-0.06
-0.05
0.03
0.09
0.08
0.02
-0.04
-0.04
0.04
0.13
0.19
0.19
0.14
0.08
0.04
0.00
-0.04
-0.11
-0.18
-0.21
-0.19
-0.14
-0.13
-0.22
-0.42
-0.69
-0.90
-0.93
-0.78
-0.49
-0.20
-0.03
-0.03
-0.16
-0.31
-0.36
-0.24
0.03
0.38
0.70
0.94
1.04
1.02
0.89
0.66
0.40
0.13
-0.09
-0.22
-0.27
-0.23
-0.12
0.02
0.16
0.28
0.32
0.30
0.21
0.07
-0.08
-0.19
-0.22
-0.17
-0.03
0.13
0.26
0.27
0.15
-0.09
-0.36
-0.57
-0.63
-0.55
-0.37
-0.16
0.03
0.17
0.25
0.31
0.32
0.30
0.26
0.23
0.21
0.20
0.17
0.09
-0.04
-0.19
-0.31
-0.36
-0.31
-0.20
-0.08
-0.01
0.00
-0.01
-0.01
0.05
0.11
0.10
-0.07
-0.41
-0.81
-1.08
-1.10
-0.81
-0.33
0.13
0.38
0.33
0.05
-0.29
-0.51
-0.51
-0.28
0.09
0.48
0.79
0.97
1.02
0.98
0.87
0.73
0.59
0.46
0.34
0.26
0.22
0.23
0.28
0.34
0.35
0.31
0.21
0.08
-0.03
-0.08
-0.06
0.00
0.04
0.00
-0.12
-0.29
-0.42
-0.44
-0.36
-0.22
-0.11
-0.07
-0.10
-0.14
-0.15
-0.12
-0.07
-0.05
-0.08
-0.13
-0.19
-0.24
-0.31
-0.43
-0.60
-0.80
-0.95
-0.96
-0.77
-0.38
0.12
0.59
0.90
0.96
0.76
0.38
-0.01
-0.26
-0.26
-0.03
0.32
0.64
0.80
0.77
0.57
0.31
0.08
-0.05
-0.10
-0.08
-0.07
-0.10
-0.18
-0.25
-0.27
-0.18
-0.02
0.15
0.19
0.02
-0.34
-0.79
-1.16
-1.33
-1.29
-1.12
-0.95
-0.84
-0.79
-0.73
-0.62
-0.44
-0.24
-0.06
0.10
0.30
0.59
0.97
1.32
1.50
1.39
1.02
0.55
0.15
-0.03
-0.01
0.13
0.24
0.27
0.24
0.23
0.32
0.53
0.77
0.94
0.91
0.67
0.24
-0.23
-0.61
-0.77
-0.69
-0.44
-0.14
0.07
0.11
-0.00
-0.17
-0.27
-0.24
-0.10
0.03
0.04
-0.12
-0.38
-0.59
-0.62
-0.40
-0.00
0.45
0.80
0.98
1.00
0.90
0.74
0.56
0.36
0.11
-0.18
-0.50
-0.79
-0.96
-0.94
-0.73
-0.34
0.12
0.49
0.66
0.56
0.21
-0.24
-0.65
-0.89
-0.91
-0.75
-0.49
-0.24
-0.11
-0.12
-0.27
-0.49
-0.69
-0.80
-0.78
-0.64
-0.42
-0.19
0.02
0.20
0.34
0.42
0.41
0.30
0.07
-0.23
-0.54
-0.77
-0.87
-0.83
-0.70
-0.53
-0.36
-0.21
-0.08
0.06
0.23
0.44
0.66
0.85
0.97
0.99
0.93
0.84
0.79
0.80
0.85
0.92
0.93
0.89
0.78
0.64
0.52
0.46
0.47
0.51
0.55
0.53
0.40
0.16
-0.14
-0.40
-0.56
-0.58
-0.50
-0.39
-0.34
-0.39
-0.52
-0.66
-0.75
-0.72
-0.59
-0.42
-0.27
-0.23
-0.26
-0.32
-0.32
-0.19
0.04
0.30
0.46
0.46
0.30
0.06
-0.12
-0.15
-0.06
0.10
0.20
0.20
0.10
-0.03
-0.14
-0.19
-0.23
-0.28
-0.35
-0.42
-0.45
-0.40
-0.30
-0.18
-0.10
-0.06
-0.03
0.04
0.16
0.31
0.46
0.54
0.55
0.48
0.36
0.22
0.07
-0.06
-0.15
-0.17
-0.08
0.12
0.38
0.62
0.76
0.74
0.56
0.24
-0.13
-0.51
-0.80
-0.97
-0.97
-0.83
-0.63
-0.46
-0.40
-0.43
-0.50
-0.50
-0.36
-0.08
0.26
0.55
0.69
0.66
0.53
0.41
0.39
0.51
0.70
0.87
0.90
0.74
0.42
0.04
-0.25
-0.35
-0.25
-0.01
0.23
0.33
0.18
-0.19
-0.66
-1.04
-1.21
-1.10
-0.82
-0.51
-0.31
-0.29
-0.37
-0.44
-0.39
-0.22
0.04
0.28
0.43
0.45
0.33
0.10
-0.20
-0.52
-0.80
-0.94
-0.89
-0.63
-0.25
0.12
0.36
0.43
0.37
0.27
0.21
0.19
0.15
-0.02
-0.32
-0.68
-0.96
-1.01
-0.75
-0.25
0.35
0.87
1.17
1.20
1.00
0.65
0.27
-0.03
-0.20
-0.24
-0.18
-0.09
-0.03
-0.05
-0.15
-0.27
-0.34
-0.29
-0.11
0.17
0.47
0.75
1.01
1.26
1.51
1.70
1.73
1.52
1.05
0.44
-0.15
-0.55
-0.67
-0.54
-0.28
-0.00
0.22
0.36
0.45
0.48
0.45
0.32
0.08
-0.27
-0.65
-0.97
-1.16
-1.16
-1.03
-0.83
-0.70
-0.69
-0.80
-0.96
-1.04
-1.00
-0.83
-0.57
-0.31
-0.07
0.13
0.28
0.36
0.33
0.14
-0.16
-0.44
-0.55
-0.39
0.03
0.58
1.06
1.28
1.20
0.85
0.41
0.04
-0.15
-0.14
0.02
0.24
0.39
0.41
0.28
0.01
-0.30
-0.57
-0.71
-0.68
-0.49
-0.24
0.01
0.20
0.32
0.40
0.45
0.46
0.42
0.29
0.12
-0.05
-0.13
-0.11
-0.01
0.10
0.15
0.12
0.05
-0.02
-0.00
0.12
0.35
0.66
1.00
1.31
1.54
1.62
1.56
1.40
1.23
1.16
1.24
1.45
1.68
1.82
1.76
1.47
0.99
0.45
-0.02
-0.32
-0.43
-0.41
-0.38
-0.44
-0.61
-0.83
-1.00
-1.02
-0.87
-0.62
-0.38
-0.24
-0.23
-0.32
-0.42
-0.50
-0.55
-0.60
-0.68
-0.82
-0.98
-1.11
-1.13
-0.97
-0.62
-0.12
0.40
0.78
0.88
0.70
0.32
-0.11
-0.42
-0.51
-0.41
-0.20
0.00
0.12
0.12
0.04
-0.07
-0.14
-0.11
0.02
0.23
0.42
0.49
0.39
0.14
-0.16
-0.40
-0.52
-0.54
-0.53
-0.56
-0.59
-0.58
-0.46
-0.23
0.02
0.17
0.13
-0.09
-0.39
-0.64
-0.75
-0.70
-0.56
-0.44
-0.39
-0.41
-0.41
-0.30
-0.02
0.39
0.81
1.10
1.14
0.87
0.40
-0.12
-0.54
-0.75
-0.76
-0.65
-0.50
-0.39
-0.33
-0.28
-0.22
-0.14
-0.07
-0.02
-0.01
-0.03
-0.04
-0.02
0.06
0.17
0.30
0.41
0.50
0.55
0.57
0.55
0.46
0.32
0.15
-0.02
-0.12
-0.16
-0.13
-0.07
-0.02
0.00
-0.01
-0.04
-0.11
-0.19
-0.28
-0.33
-0.31
-0.21
-0.02
0.19
0.38
0.49
0.50
0.41
0.24
0.06
-0.11
-0.24
-0.32
-0.37
-0.41
-0.44
-0.41
-0.30
-0.11
0.10
0.24
0.24
0.11
-0.05
-0.13
-0.06
0.13
0.38
0.58
0.69
0.70
0.66
0.61
0.55
0.50
0.47
0.47
0.48
0.46
0.36
0.15
-0.18
-0.55
-0.87
-1.04
-1.00
-0.77
-0.42
-0.04
0.24
0.38
0.35
0.20
-0.00
-0.20
-0.38
-0.55
-0.72
-0.88
-1.00
-1.02
-0.89
-0.64
-0.30
0.01
0.18
0.17
-0.03
-0.32
-0.59
-0.73
-0.71
-0.57
-0.39
-0.23
-0.12
-0.02
0.10
0.25
0.40
0.51
0.54
0.53
0.50
0.48
0.46
0.40
0.27
0.11
-0.03
-0.10
-0.06
0.05
0.20
0.33
0.42
0.51
0.62
0.74
0.83
0.82
0.66
0.39
0.08
-0.16
-0.26
-0.24
-0.12
0.03
0.16
0.25
0.32
0.37
0.38
0.35
0.30
0.26
0.24
0.25
0.25
0.17
0.01
-0.18
-0.33
-0.38
-0.29
-0.14
-0.02
-0.02
-0.16
-0.40
-0.62
-0.72
-0.66
-0.46
-0.18
0.10
0.32
0.45
0.47
0.39
0.24
0.08
-0.04
-0.08
-0.05
-0.01
-0.06
-0.20
-0.41
-0.56
-0.59
-0.51
-0.40
-0.38
-0.49
-0.69
-0.84
-0.82
-0.59
-0.22
0.17
0.46
0.58
0.56
0.42
0.25
0.07
-0.08
-0.18
-0.20
-0.11
0.10
0.39
0.73
1.01
1.16
1.14
0.96
0.69
0.40
0.15
-0.07
-0.27
-0.47
-0.62
-0.70
-0.65
-0.46
-0.18
0.10
0.31
0.40
0.32
0.11
-0.17
-0.48
-0.73
-0.90
-0.96
-0.92
-0.80
-0.65
-0.48
-0.30
-0.15
-0.02
0.05
0.06
-0.01
-0.16
-0.37
-0.58
-0.69
-0.64
-0.40
-0.02
0.38
0.67
0.76
0.68
0.51
0.39
0.44
0.68
1.01
1.30
1.40
1.27
0.99
0.65
0.39
0.23
0.14
0.05
-0.07
-0.19
-0.21
-0.06
0.22
0.48
0.53
0.30
-0.16
-0.66
-0.98
-1.01
-0.79
-0.47
-0.21
-0.09
-0.10
-0.14
-0.13
-0.07
0.01
0.06
0.06
0.03
-0.00
-0.02
-0.04
-0.09
-0.16
-0.22
-0.22
-0.12
0.03
0.20
0.29
0.27
0.15
-0.04
-0.21
-0.33
-0.36
-0.30
-0.16
0.04
0.28
0.54
0.77
0.89
0.85
0.67
0.40
0.16
0.00
-0.05
-0.03
-0.02
-0.03
-0.05
-0.02
0.07
0.22
0.38
0.48
0.48
0.36
0.11
-0.22
-0.59
-0.93
-1.18
-1.29
-1.26
-1.16
-1.03
-0.93
-0.85
-0.79
-0.71
-0.63
-0.53
-0.43
-0.30
-0.11
0.14
0.41
0.66
0.84
0.92
0.87
0.71
0.44
0.12
-0.17
-0.35
-0.36
-0.24
-0.06
0.08
0.11
0.03
-0.10
-0.19
-0.22
-0.18
-0.11
-0.02
0.12
0.34
0.60
0.82
0.88
0.72
0.35
-0.07
-0.38
-0.47
-0.32
-0.03
0.30
0.59
0.81
0.96
1.04
1.02
0.86
0.56
0.17
-0.23
-0.54
-0.70
-0.70
-0.56
-0.35
-0.13
0.03
0.14
0.19
0.23
0.27
0.32
0.34
0.30
0.17
-0.01
-0.20
-0.36
-0.43
-0.40
-0.26
-0.02
0.27
0.55
0.74
0.80
0.72
0.55
0.37
0.21
0.08
-0.05
-0.21
-0.40
-0.59
-0.77
-0.91
-0.98
-0.98
-0.90
-0.74
-0.54
-0.31
-0.09
0.15
0.42
0.73
1.03
1.24
1.23
0.96
0.48
-0.07
-0.50
-0.69
-0.63
-0.40
-0.19
-0.11
-0.21
-0.41
-0.59
-0.63
-0.50
-0.26
-0.03
0.10
0.12
0.06
-0.01
-0.04
-0.05
-0.07
-0.12
-0.18
-0.25
-0.31
-0.35
-0.41
-0.48
-0.52
-0.50
-0.37
-0.15
0.07
0.17
0.06
-0.25
-0.66
-1.00
-1.15
-1.06
-0.79
-0.47
-0.22
-0.10
-0.09
-0.12
-0.11
-0.05
0.08
0.27
0.49
0.73
0.97
1.17
1.28
1.29
1.19
0.99
0.73
0.46
0.22
0.09
0.09
0.21
0.39
0.53
0.52
0.35
0.10
-0.10
-0.14
-0.05
0.06
0.08
-0.08
-0.34
-0.57
-0.63
-0.46
-0.13
0.24
0.52
0.60
0.45
0.12
-0.27
-0.60
-0.75
-0.66
-0.39
-0.06
0.18
0.25
0.17
0.05
-0.02
0.01
0.08
0.12
0.09
0.01
-0.04
0.01
0.15
0.32
0.42
0.37
0.17
-0.12
-0.41
-0.57
-0.55
-0.39
-0.19
-0.07
-0.11
-0.26
-0.42
-0.45
-0.29
0.01
0.32
0.50
0.51
0.39
0.29
0.32
0.49
0.72
0.88
0.84
0.60
0.21
-0.21
-0.55
-0.78
-0.87
-0.84
-0.68
-0.42
-0.10
0.20
0.37
0.38
0.23
0.03
-0.11
-0.11
0.01
0.18
0.30
0.30
0.19
0.00
-0.21
-0.39
-0.49
-0.48
-0.36
-0.15
0.11
0.32
0.40
0.31
0.04
-0.33
-0.70
-0.96
-1.03
-0.90
-0.61
-0.26
0.05
0.23
0.28
0.23
0.15
0.09
0.04
-0.02
-0.11
-0.26
-0.41
-0.52
-0.54
-0.45
-0.29
-0.13
-0.04
-0.04
-0.09
-0.15
-0.16
-0.13
-0.09
-0.07
-0.11
-0.20
-0.31
-0.40
-0.44
-0.40
-0.29
-0.09
0.16
0.46
0.77
1.07
1.33
1.50
1.58
1.54
1.42
1.27
1.15
1.06
0.99
0.88
0.69
0.44
0.23
0.13
0.17
0.29
0.39
0.39
0.29
0.15
0.07
0.10
0.23
0.39
0.55
0.68
0.76
0.76
0.62
0.30
-0.21
-0.78
-1.25
-1.47
-1.36
-1.01
-0.58
-0.23
-0.05
-0.05
-0.15
-0.32
-0.53
-0.78
-1.06
-1.30
-1.41
-1.31
-0.95
-0.42
0.14
0.59
0.82
0.85
0.72
0.54
0.32
0.07
-0.27
-0.68
-1.07
-1.32
-1.30
-1.02
-0.59
-0.21
-0.03
-0.07
-0.24
-0.37
-0.33
-0.10
0.26
0.61
0.85
0.92
0.85
0.72
0.61
0.58
0.63
0.69
0.70
0.63
0.49
0.34
0.24
0.23
0.30
0.40
0.44
0.40
0.27
0.07
-0.13
-0.29
-0.36
-0.31
-0.18
-0.04
0.06
0.05
-0.05
-0.19
-0.31
-0.36
-0.31
-0.19
-0.03
0.11
0.18
0.13
-0.02
-0.25
-0.47
-0.60
-0.58
-0.39
-0.10
0.22
0.47
0.60
0.61
0.54
0.43
0.32
0.21
0.10
-0.02
-0.15
-0.28
-0.39
-0.48
-0.52
-0.52
-0.47
-0.40
-0.32
-0.24
-0.17
-0.11
-0.05
-0.02
-0.06
-0.17
-0.35
-0.51
-0.57
-0.46
-0.17
0.22
0.58
0.80
0.81
0.59
0.21
-0.25
-0.63
-0.84
-0.80
-0.57
-0.29
-0.12
-0.16
-0.41
-0.73
-0.96
-0.98
-0.76
-0.41
-0.08
0.11
0.14
0.05
-0.08
-0.19
-0.27
-0.33
-0.38
-0.44
-0.46
-0.42
-0.29
-0.07
0.19
0.45
0.69
0.87
0.99
1.03
1.01
0.96
0.92
0.94
1.02
1.11
1.13
1.01
0.73
0.37
0.03
-0.25
-0.45
-0.63
-0.80
-0.95
-0.99
-0.84
-0.54
-0.17
0.11
0.20
0.13
0.01
-0.00
0.16
0.44
0.72
0.87
0.82
0.60
0.33
0.11
0.03
0.10
0.26
0.42
0.55
0.60
0.59
0.50
0.32
0.01
-0.42
-0.89
-1.29
-1.45
-1.31
-0.90
-0.34
0.18
0.53
0.69
0.70
0.64
0.54
0.39
0.17
-0.12
-0.39
-0.56
-0.56
-0.44
-0.31
-0.27
-0.37
-0.56
-0.68
-0.62
-0.35
0.05
0.41
0.61
0.59
0.41
0.15
-0.10
-0.30
-0.48
-0.65
-0.82
-0.95
-0.99
-0.94
-0.78
-0.53
-0.25
0.07
0.38
0.64
0.81
0.86
0.80
0.69
0.58
0.52
0.51
0.54
0.60
0.66
0.74
0.81
0.81
0.69
0.41
0.03
-0.35
-0.59
-0.63
-0.48
-0.27
-0.14
-0.18
-0.39
-0.67
-0.89
-0.90
-0.69
-0.29
0.16
0.51
0.69
0.67
0.49
0.22
-0.05
-0.28
-0.41
-0.41
-0.27
-0.02
0.27
0.51
0.64
0.65
0.57
0.42
0.23
-0.02
-0.35
-0.71
-1.02
-1.17
-1.11
-0.89
-0.61
-0.39
-0.30
-0.30
-0.33
-0.32
-0.23
-0.10
0.01
0.06
0.03
-0.03
-0.04
0.02
0.14
0.26
0.30
0.21
-0.00
-0.28
-0.51
-0.64
-0.64
-0.54
-0.44
-0.35
-0.30
-0.22
-0.10
0.08
0.25
0.32
0.26
0.12
0.01
0.04
0.25
0.57
0.87
1.02
0.96
0.74
0.48
0.24
0.09
-0.02
-0.11
-0.19
-0.26
-0.27
-0.19
-0.03
0.17
0.36
0.51
0.61
0.65
0.64
0.58
0.47
0.31
0.14
-0.04
-0.21
-0.35
-0.48
-0.60
-0.70
-0.74
-0.67
-0.47
-0.19
0.11
0.34
0.46
0.47
0.43
0.38
0.36
0.33
0.25
0.12
-0.03
-0.13
-0.11
0.03
0.25
0.47
0.63
0.72
0.73
0.70
0.63
0.49
0.28
0.05
-0.15
-0.24
-0.17
0.04
0.28
0.45
0.46
0.29
-0.01
-0.31
-0.53
-0.63
-0.63
-0.58
-0.54
-0.51
-0.47
-0.38
-0.22
-0.04
0.10
0.14
0.07
-0.07
-0.20
-0.26
-0.24
-0.20
-0.18
-0.22
-0.31
-0.37
-0.35
-0.22
-0.03
0.16
0.23
0.17
-0.01
-0.21
-0.36
-0.42
-0.41
-0.36
-0.29
-0.20
-0.07
0.10
0.30
0.48
0.62
0.67
0.64
0.52
0.34
0.12
-0.11
-0.29
-0.37
-0.34
-0.20
-0.01
0.14
0.16
-0.00
-0.35
-0.79
-1.20
-1.43
-1.39
-1.05
-0.48
0.17
0.74
1.11
1.22
1.11
0.83
0.47
0.11
-0.19
-0.35
-0.34
-0.15
0.14
0.43
0.61
0.63
0.52
0.37
0.30
0.37
0.54
0.69
0.70
0.50
0.13
-0.27
-0.53
-0.55
-0.34
-0.01
0.29
0.47
0.50
0.45
0.39
0.36
0.33
0.25
0.07
-0.21
-0.50
-0.71
-0.74
-0.59
-0.31
-0.03
0.15
0.19
0.10
-0.03
-0.16
-0.23
-0.25
-0.24
-0.19
-0.06
0.15
0.39
0.55
0.53
0.30
-0.07
-0.44
-0.65
-0.65
-0.51
-0.36
-0.29
-0.32
-0.36
-0.30
-0.10
0.21
0.51
0.69
0.73
0.67
0.61
0.59
0.60
0.54
0.32
-0.07
-0.57
-1.01
-1.26
-1.26
-1.04
-0.69
-0.32
-0.02
0.19
0.28
0.26
0.14
-0.03
-0.16
-0.17
-0.03
0.23
0.51
0.69
0.67
0.45
0.13
-0.17
-0.33
-0.33
-0.21
-0.07
0.04
0.11
0.18
0.27
0.36
0.39
0.27
0.02
-0.27
-0.44
-0.37
-0.06
0.35
0.70
0.83
0.72
0.43
0.08
-0.21
-0.39
-0.43
-0.33
-0.13
0.12
0.33
0.43
0.38
0.18
-0.08
-0.35
-0.59
-0.78
-0.89
-0.89
-0.71
-0.33
0.19
0.69
0.97
0.93
0.59
0.11
-0.29
-0.46
-0.38
-0.10
0.21
0.48
0.65
0.72
0.71
0.61
0.41
0.14
-0.16
-0.41
-0.53
-0.51
-0.37
-0.17
-0.01
0.07
0.05
-0.05
-0.18
-0.29
-0.35
-0.35
-0.30
-0.22
-0.14
-0.09
-0.10
-0.18
-0.33
-0.50
-0.63
-0.66
-0.57
-0.36
-0.07
0.23
0.49
0.66
0.73
0.72
0.66
0.58
0.53
0.50
0.48
0.46
0.42
0.37
0.33
0.30
0.29
0.24
0.13
-0.06
-0.29
-0.50
-0.63
-0.67
-0.63
-0.56
-0.49
-0.43
-0.32
-0.15
0.09
0.31
0.41
0.31
0.01
-0.38
-0.70
-0.81
-0.65
-0.27
0.16
0.50
0.64
0.59
0.46
0.36
0.35
0.42
0.50
0.52
0.44
0.29
0.11
-0.05
-0.21
-0.38
-0.58
-0.80
-0.97
-1.01
-0.89
-0.65
-0.39
-0.22
-0.20
-0.31
-0.44
-0.51
-0.42
-0.21
0.06
0.29
0.41
0.40
0.29
0.13
-0.03
-0.18
-0.30
-0.34
-0.25
0.02
0.44
0.93
1.31
1.46
1.34
1.00
0.57
0.19
-0.06
-0.15
-0.10
0.05
0.24
0.43
0.54
0.52
0.32
-0.02
-0.44
-0.80
-0.99
-0.95
-0.69
-0.30
0.10
0.42
0.58
0.60
0.50
0.32
0.12
-0.09
-0.26
-0.38
-0.43
-0.39
-0.29
-0.15
-0.00
0.13
0.22
0.23
0.13
-0.08
-0.33
-0.53
-0.58
-0.47
-0.26
-0.05
0.06
0.02
-0.12
-0.27
-0.39
-0.48
-0.57
-0.64
-0.68
-0.63
-0.44
-0.16
0.09
0.19
0.10
-0.15
-0.41
-0.54
-0.46
-0.20
0.12
0.37
0.46
0.40
0.28
0.19
0.17
0.19
0.18
0.07
-0.13
-0.36
-0.54
-0.61
-0.57
-0.43
-0.23
0.02
0.29
0.58
0.83
0.97
0.94
0.74
0.43
0.13
-0.06
-0.05
0.13
0.41
0.65
0.78
0.78
0.70
0.62
0.57
0.52
0.40
0.17
-0.11
-0.35
-0.44
-0.34
-0.09
0.17
0.31
0.27
0.07
-0.22
-0.48
-0.60
-0.54
-0.30
0.03
0.35
0.53
0.53
0.37
0.10
-0.16
-0.34
-0.39
-0.30
-0.08
0.19
0.43
0.56
0.53
0.33
0.04
-0.25
-0.46
-0.52
-0.44
-0.24
0.01
0.23
0.36
0.35
0.22
0.01
-0.21
-0.41
-0.58
-0.76
-0.94
-1.07
-1.05
-0.81
-0.39
0.08
0.41
0.45
0.21
-0.14
-0.42
-0.46
-0.25
0.07
0.32
0.38
0.24
-0.05
-0.33
-0.54
-0.65
-0.67
-0.65
-0.58
-0.45
-0.21
0.16
0.64
1.14
1.51
1.64
1.46
1.01
0.42
-0.11
-0.42
-0.44
-0.22
0.06
0.23
0.20
0.02
-0.19
-0.32
-0.32
-0.27
-0.26
-0.35
-0.47
-0.53
-0.40
-0.11
0.23
0.47
0.50
0.30
-0.02
-0.31
-0.45
-0.38
-0.12
0.27
0.68
0.98
1.10
1.02
0.79
0.48
0.18
-0.06
-0.26
-0.45
-0.65
-0.86
-1.02
-1.10
-1.07
-0.97
-0.84
-0.73
-0.63
-0.50
-0.31
-0.08
0.16
0.33
0.39
0.34
0.21
0.08
-0.04
-0.14
-0.21
-0.26
-0.29
-0.26
-0.16
-0.01
0.15
0.29
0.40
0.48
0.59
0.72
0.87
0.94
0.87
0.62
0.26
-0.06
-0.20
-0.09
0.24
0.65
0.99
1.13
1.05
0.83
0.58
0.39
0.28
0.24
0.20
0.14
0.04
-0.05
-0.07
-0.00
0.14
0.26
0.28
0.15
-0.10
-0.37
-0.55
-0.58
-0.47
-0.32
-0.21
-0.18
-0.23
-0.31
-0.41
-0.53
-0.70
-0.92
-1.14
-1.28
-1.26
-1.05
-0.70
-0.35
-0.09
-0.02
-0.12
-0.31
-0.50
-0.59
-0.57
-0.49
-0.42
-0.42
-0.48
-0.53
-0.49
-0.34
-0.10
0.17
0.38
0.52
0.64
0.80
1.03
1.28
1.45
1.46
1.27
0.93
0.54
0.21
-0.00
-0.07
-0.03
0.07
0.15
0.18
0.13
0.01
-0.13
-0.21
-0.19
-0.04
0.21
0.49
0.72
0.82
0.77
0.61
0.41
0.25
0.20
0.24
0.31
0.31
0.17
-0.09
-0.38
-0.56
-0.53
-0.29
0.04
0.31
0.34
0.12
-0.27
-0.64
-0.80
-0.66
-0.28
0.17
0.47
0.51
0.31
0.06
-0.08
-0.00
0.21
0.38
0.33
0.01
-0.45
-0.81
-0.87
-0.54
0.05
0.67
1.04
1.02
0.63
0.01
-0.62
-1.11
-1.37
-1.43
-1.34
-1.17
-0.94
-0.66
-0.36
-0.07
0.14
0.23
0.17
0.01
-0.16
-0.27
-0.28
-0.21
-0.09
0.03
0.12
0.16
0.15
0.09
0.01
-0.02
0.02
0.12
0.25
0.31
0.27
0.13
-0.02
-0.07
-0.00
0.16
0.35
0.50
0.62
0.73
0.84
0.92
0.86
0.63
0.24
-0.16
-0.42
-0.41
-0.17
0.16
0.43
0.51
0.40
0.17
-0.07
-0.25
-0.36
-0.46
-0.57
-0.71
-0.83
-0.89
-0.85
-0.71
-0.53
-0.37
-0.33
-0.39
-0.51
-0.60
-0.58
-0.39
-0.09
0.23
0.44
0.45
0.28
0.04
-0.14
-0.16
-0.03
0.19
0.38
0.49
0.50
0.48
0.51
0.59
0.70
0.76
0.70
0.51
0.22
-0.07
-0.26
-0.28
-0.14
0.10
0.33
0.43
0.39
0.23
0.05
-0.09
-0.14
-0.13
-0.12
-0.14
-0.18
-0.18
-0.08
0.12
0.37
0.57
0.63
0.51
0.27
-0.01
-0.21
-0.31
-0.29
-0.17
0.04
0.32
0.66
0.97
1.18
1.18
0.94
0.51
-0.02
-0.50
-0.84
-1.02
-1.03
-0.94
-0.77
-0.58
-0.41
-0.27
-0.19
-0.16
-0.17
-0.18
-0.19
-0.16
-0.09
0.03
0.18
0.32
0.38
0.31
0.11
-0.17
-0.41
-0.51
-0.45
-0.28
-0.12
-0.06
-0.12
-0.26
-0.37
-0.38
-0.30
-0.18
-0.10
-0.08
-0.11
-0.12
-0.05
0.09
0.26
0.40
0.47
0.48
0.50
0.56
0.67
0.76
0.76
0.60
0.29
-0.10
-0.48
-0.77
-0.95
-1.02
-0.99
-0.87
-0.66
-0.37
-0.03
0.29
0.53
0.64
0.63
0.50
0.28
0.02
-0.21
-0.37
-0.43
-0.35
-0.15
0.11
0.38
0.58
0.70
0.72
0.67
0.59
0.49
0.33
0.08
-0.28
-0.72
-1.12
-1.33
-1.24
-0.85
-0.26
0.33
0.73
0.85
0.71
0.38
-0.02
-0.41
-0.73
-0.96
-1.06
-1.01
-0.83
-0.57
-0.28
-0.05
0.06
0.04
-0.08
-0.22
-0.31
-0.27
-0.10
0.18
0.48
0.70
0.77
0.70
0.53
0.35
0.22
0.17
0.19
0.25
0.35
0.48
0.61
0.72
0.75
0.67
0.45
0.13
-0.24
-0.59
-0.84
-0.91
-0.78
-0.48
-0.08
0.27
0.47
0.48
0.34
0.14
-0.01
-0.03
0.06
0.21
0.35
0.40
0.33
0.13
-0.15
-0.44
-0.63
-0.68
-0.55
-0.31
-0.03
0.20
0.34
0.41
0.43
0.42
0.36
0.21
-0.06
-0.41
-0.74
-0.97
-1.03
-0.93
-0.73
-0.50
-0.27
-0.06
0.15
0.37
0.57
0.71
0.74
0.65
0.49
0.34
0.28
0.32
0.43
0.51
0.51
0.41
0.26
0.11
0.01
-0.07
-0.12
-0.18
-0.20
-0.17
-0.11
-0.07
-0.13
-0.27
-0.43
-0.51
-0.43
-0.20
0.09
0.34
0.49
0.53
0.48
0.37
0.19
-0.02
-0.23
-0.37
-0.40
-0.33
-0.22
-0.13
-0.08
-0.04
0.06
0.25
0.49
0.71
0.84
0.85
0.78
0.67
0.52
0.32
0.05
-0.28
-0.59
-0.83
-0.92
-0.85
-0.68
-0.46
-0.22
0.00
0.18
0.28
0.26
0.12
-0.11
-0.33
-0.43
-0.39
-0.23
-0.03
0.12
0.19
0.18
0.14
0.08
0.02
-0.07
-0.19
-0.29
-0.32
-0.24
-0.08
0.12
0.28
0.35
0.33
0.23
0.08
-0.08
-0.25
-0.38
-0.46
-0.47
-0.38
-0.21
-0.00
0.17
0.22
0.11
-0.17
-0.53
-0.84
-1.00
-0.90
-0.55
-0.04
0.47
0.81
0.88
0.70
0.35
-0.00
-0.26
-0.37
-0.33
-0.21
-0.02
0.22
0.52
0.87
1.19
1.40
1.45
1.33
1.15
0.97
0.84
0.75
0.64
0.47
0.22
-0.07
-0.37
-0.64
-0.87
-1.02
-1.05
-0.95
-0.72
-0.39
-0.05
0.19
0.29
0.21
-0.01
-0.29
-0.54
-0.70
-0.74
-0.66
-0.50
-0.29
-0.06
0.16
0.33
0.41
0.38
0.23
0.01
-0.20
-0.33
-0.35
-0.26
-0.13
-0.03
0.03
0.07
0.15
0.32
0.55
0.76
0.86
0.79
0.56
0.26
-0.02
-0.22
-0.33
-0.37
-0.39
-0.42
-0.49
-0.59
-0.72
-0.86
-0.95
-0.94
-0.77
-0.45
-0.02
0.39
0.68
0.77
0.65
0.39
0.11
-0.10
-0.18
-0.14
-0.03
0.08
0.18
0.25
0.29
0.30
0.25
0.10
-0.13
-0.39
-0.57
-0.61
-0.49
-0.28
-0.07
0.07
0.14
0.20
0.31
0.50
0.71
0.86
0.87
0.69
0.37
0.03
-0.22
-0.34
-0.34
-0.31
-0.32
-0.39
-0.46
-0.47
-0.38
-0.21
-0.02
0.12
0.19
0.17
0.12
0.07
0.08
0.15
0.28
0.41
0.51
0.52
0.43
0.27
0.07
-0.13
-0.31
-0.48
-0.66
-0.81
-0.89
-0.85
-0.67
-0.41
-0.17
-0.02
0.04
0.05
0.05
0.09
0.15
0.20
0.21
0.16
0.07
-0.03
-0.14
-0.24
-0.33
-0.40
-0.44
-0.44
-0.37
-0.26
-0.12
0.06
0.27
0.53
0.83
1.12
1.32
1.38
1.25
0.99
0.71
0.51
0.43
0.43
0.41
0.28
0.03
-0.25
-0.44
-0.46
-0.31
-0.06
0.21
0.41
0.53
0.55
0.45
0.26
0.00
-0.25
-0.40
-0.41
-0.31
-0.19
-0.16
-0.25
-0.42
-0.57
-0.59
-0.48
-0.31
-0.23
-0.33
-0.59
-0.91
-1.16
-1.23
-1.11
-0.87
-0.57
-0.30
-0.08
0.11
0.25
0.34
0.35
0.30
0.22
0.17
0.17
0.24
0.35
0.49
0.66
0.84
1.00
1.06
0.97
0.70
0.26
-0.22
-0.63
-0.84
-0.81
-0.54
-0.12
0.35
0.73
0.90
0.82
0.52
0.11
-0.26
-0.46
-0.45
-0.26
-0.01
0.19
0.28
0.25
0.14
0.02
-0.07
-0.14
-0.22
-0.32
-0.45
-0.57
-0.61
-0.52
-0.29
0.02
0.31
0.51
0.56
0.47
0.30
0.06
-0.19
-0.41
-0.55
-0.58
-0.50
-0.33
-0.11
0.11
0.30
0.43
0.48
0.43
0.25
-0.01
-0.27
-0.42
-0.38
-0.17
0.10
0.28
0.25
0.01
-0.32
-0.58
-0.65
-0.50
-0.21
0.12
0.36
0.47
0.49
0.48
0.49
0.51
0.48
0.35
0.11
-0.17
-0.38
-0.42
-0.31
-0.12
-0.02
-0.11
-0.39
-0.72
-0.94
-0.90
-0.61
-0.19
0.18
0.40
0.43
0.38
0.37
0.47
0.64
0.74
0.64
0.31
-0.17
-0.59
-0.76
-0.59
-0.17
0.30
0.61
0.67
0.50
0.24
0.03
-0.06
-0.09
-0.15
-0.30
-0.52
-0.75
-0.86
-0.80
-0.60
-0.33
-0.10
0.04
0.11
0.17
0.27
0.44
0.64
0.78
0.80
0.70
0.54
0.40
0.32
0.29
0.27
0.17
-0.01
-0.25
-0.45
-0.55
-0.54
-0.45
-0.38
-0.39
-0.47
-0.54
-0.50
-0.32
-0.05
0.23
0.39
0.41
0.32
0.20
0.12
0.10
0.11
0.10
0.02
-0.10
-0.23
-0.33
-0.39
-0.38
-0.29
-0.10
0.17
0.46
0.64
0.60
0.34
-0.06
-0.39
-0.50
-0.34
-0.01
0.32
0.51
0.52
0.40
0.22
0.04
-0.13
-0.30
-0.44
-0.51
-0.47
-0.32
-0.13
0.04
0.12
0.14
0.13
0.13
0.12
0.07
-0.02
-0.11
-0.12
0.00
0.23
0.50
0.70
0.77
0.71
0.57
0.39
0.19
-0.01
-0.17
-0.26
-0.25
-0.16
-0.06
-0.02
-0.14
-0.43
-0.80
-1.12
-1.29
-1.28
-1.14
-0.95
-0.81
-0.74
-0.72
-0.67
-0.54
-0.30
0.02
0.35
0.63
0.81
0.87
0.84
0.77
0.69
0.66
0.68
0.74
0.79
0.80
0.73
0.59
0.39
0.19
0.05
0.02
0.08
0.17
0.21
0.18
0.10
0.04
0.10
0.31
0.60
0.83
0.89
0.69
0.30
-0.16
-0.56
-0.78
-0.79
-0.60
-0.25
0.21
0.69
1.09
1.30
1.23
0.90
0.40
-0.10
-0.47
-0.62
-0.60
-0.51
-0.42
-0.39
-0.39
-0.39
-0.36
-0.32
-0.30
-0.33
-0.41
-0.48
-0.51
-0.47
-0.37
-0.25
-0.18
-0.21
-0.36
-0.59
-0.83
-0.99
-1.01
-0.87
-0.61
-0.30
0.01
0.27
0.44
0.51
0.48
0.38
0.27
0.22
0.29
0.47
0.66
0.77
0.69
0.43
0.07
-0.25
-0.47
-0.57
-0.61
-0.65
-0.72
-0.76
-0.71
-0.52
-0.22
0.12
0.42
0.60
0.64
0.56
0.40
0.22
0.05
-0.06
-0.08
-0.02
0.13
0.32
0.49
0.54
0.44
0.19
-0.14
-0.43
-0.56
-0.48
-0.24
0.04
0.20
0.12
-0.20
-0.67
-1.11
-1.35
-1.29
-0.95
-0.44
0.07
0.44
0.60
0.53
0.33
0.08
-0.11
-0.17
-0.09
0.11
0.34
0.53
0.64
0.66
0.63
0.57
0.51
0.41
0.29
0.14
0.03
0.04
0.17
0.40
0.64
0.80
0.86
0.82
0.71
0.57
0.39
0.21
0.05
-0.05
-0.05
0.01
0.10
0.17
0.19
0.16
0.07
-0.04
-0.16
-0.25
-0.29
-0.24
-0.12
0.01
0.08
0.01
-0.16
-0.38
-0.54
-0.58
-0.50
-0.39
-0.33
-0.37
-0.50
-0.63
-0.67
-0.56
-0.29
0.08
0.44
0.67
0.72
0.58
0.35
0.13
0.00
0.02
0.16
0.34
0.46
0.47
0.34
0.08
-0.20
-0.42
-0.49
-0.40
-0.16
0.13
0.40
0.55
0.53
0.35
0.06
-0.26
-0.53
-0.72
-0.82
-0.83
-0.75
-0.58
-0.34
-0.05
0.23
0.42
0.46
0.35
0.12
-0.14
-0.34
-0.42
-0.37
-0.20
0.06
0.33
0.56
0.65
0.57
0.32
-0.02
-0.33
-0.51
-0.52
-0.40
-0.26
-0.19
-0.22
-0.31
-0.36
-0.29
-0.10
0.14
0.33
0.36
0.27
0.12
0.04
0.08
0.20
0.30
0.28
0.13
-0.08
-0.19
-0.14
0.06
0.24
0.25
0.02
-0.37
-0.70
-0.78
-0.52
-0.05
0.43
0.74
0.82
0.77
0.72
0.75
0.81
0.80
0.61
0.26
-0.14
-0.43
-0.50
-0.37
-0.15
-0.01
-0.06
-0.31
-0.68
-1.05
-1.32
-1.46
-1.51
-1.52
-1.56
-1.57
-1.48
-1.23
-0.79
-0.26
0.22
0.51
0.58
0.47
0.32
0.26
0.38
0.64
0.93
1.13
1.16
1.04
0.82
0.59
0.41
0.28
0.19
0.09
-0.01
-0.07
-0.05
0.05
0.18
0.28
0.28
0.20
0.11
0.09
0.18
0.35
0.50
0.51
0.36
0.16
0.01
0.04
0.22
0.44
0.54
0.43
0.13
-0.20
-0.40
-0.41
-0.31
-0.24
-0.32
-0.54
-0.77
-0.85
-0.69
-0.32
0.09
0.40
0.50
0.43
0.26
0.06
-0.13
-0.32
-0.49
-0.60
-0.56
-0.35
0.05
0.54
0.99
1.30
1.39
1.26
0.97
0.59
0.22
-0.11
-0.36
-0.52
-0.58
-0.52
-0.38
-0.19
-0.04
-0.00
-0.10
-0.27
-0.41
-0.42
-0.28
-0.03
0.24
0.43
0.50
0.45
0.28
0.04
-0.25
-0.53
-0.72
-0.74
-0.58
-0.28
0.05
0.32
0.45
0.47
0.42
0.36
0.31
0.27
0.25
0.24
0.27
0.34
0.39
0.39
0.27
0.05
-0.21
-0.43
-0.52
-0.46
-0.29
-0.07
0.11
0.19
0.16
0.03
-0.15
-0.31
-0.39
-0.34
-0.21
-0.04
0.12
0.22
0.27
0.32
0.37
0.39
0.35
0.25
0.12
0.05
0.12
0.32
0.55
0.69
0.65
0.44
0.14
-0.16
-0.40
-0.58
-0.72
-0.82
-0.82
-0.68
-0.45
-0.24
-0.21
-0.41
-0.77
-1.07
-1.11
-0.80
-0.24
0.33
0.69
0.74
0.56
0.30
0.09
-0.04
-0.11
-0.19
-0.28
-0.33
-0.30
-0.16
0.03
0.20
0.31
0.36
0.36
0.32
0.22
0.05
-0.15
-0.31
-0.33
-0.16
0.15
0.45
0.63
0.61
0.46
0.29
0.17
0.13
0.11
0.03
-0.12
-0.28
-0.35
-0.28
-0.09
0.11
0.22
0.17
-0.01
-0.22
-0.36
-0.40
-0.33
-0.20
-0.05
0.11
0.27
0.41
0.52
0.55
0.49
0.36
0.21
0.09
0.07
0.14
0.28
0.44
0.56
0.59
0.52
0.36
0.18
0.03
-0.05
-0.08
-0.10
-0.15
-0.22
-0.28
-0.27
-0.18
-0.03
0.08
0.10
0.02
-0.11
-0.19
-0.17
-0.08
0.01
0.04
-0.03
-0.14
-0.21
-0.21
-0.12
-0.00
0.05
0.01
-0.10
-0.21
-0.25
-0.20
-0.14
-0.13
-0.23
-0.38
-0.51
-0.51
-0.36
-0.10
0.16
0.31
0.33
0.25
0.16
0.12
0.16
0.21
0.19
0.05
-0.17
-0.41
-0.54
-0.53
-0.40
-0.23
-0.11
-0.08
-0.14
-0.21
-0.23
-0.19
-0.11
-0.01
0.05
0.07
0.06
0.02
-0.04
-0.12
-0.21
-0.29
-0.34
-0.34
-0.27
-0.15
-0.00
0.13
0.21
0.22
0.17
0.09
0.01
-0.06
-0.12
-0.20
-0.29
-0.39
-0.45
-0.45
-0.39
-0.29
-0.20
-0.14
-0.10
-0.04
0.06
0.20
0.35
0.45
0.46
0.38
0.27
0.19
0.21
0.35
0.55
0.72
0.79
0.72
0.54
0.33
0.17
0.08
0.09
0.16
0.26
0.39
0.53
0.66
0.76
0.79
0.72
0.56
0.32
0.05
-0.22
-0.46
-0.63
-0.73
-0.75
-0.70
-0.62
-0.54
-0.50
-0.49
-0.52
-0.56
-0.61
-0.66
-0.70
-0.73
-0.71
-0.63
-0.47
-0.22
0.08
0.37
0.57
0.62
0.49
0.21
-0.14
-0.45
-0.59
-0.52
-0.22
0.24
0.74
1.15
1.38
1.41
1.28
1.04
0.80
0.58
0.41
0.31
0.27
0.29
0.37
0.47
0.56
0.61
0.59
0.52
0.39
0.21
0.03
-0.12
-0.20
-0.18
-0.11
-0.08
-0.18
-0.43
-0.75
-1.02
-1.13
-1.08
-0.92
-0.76
-0.67
-0.60
-0.50
-0.30
0.01
0.36
0.68
0.86
0.86
0.66
0.30
-0.15
-0.59
-0.91
-1.04
-0.95
-0.72
-0.47
-0.30
-0.26
-0.32
-0.43
-0.47
-0.42
-0.27
-0.09
0.04
0.09
0.07
0.07
0.18
0.46
0.87
1.28
1.55
1.58
1.38
1.05
0.72
0.47
0.36
0.34
0.35
0.34
0.27
0.11
-0.13
-0.45
-0.80
-1.12
-1.31
-1.28
-1.04
-0.62
-0.15
0.22
0.40
0.38
0.22
0.02
-0.11
-0.17
-0.18
-0.23
-0.34
-0.50
-0.64
-0.64
-0.46
-0.13
0.26
0.58
0.74
0.76
0.68
0.61
0.59
0.63
0.67
0.65
0.53
0.32
0.09
-0.09
-0.17
-0.14
-0.05
0.01
-0.01
-0.13
-0.30
-0.46
-0.52
-0.51
-0.47
-0.45
-0.46
-0.49
-0.46
-0.36
-0.21
-0.09
-0.08
-0.22
-0.48
-0.75
-0.95
-0.97
-0.79
-0.44
-0.02
0.33
0.50
0.46
0.27
0.03
-0.11
-0.13
-0.05
0.03
0.01
-0.14
-0.36
-0.55
-0.59
-0.44
-0.17
0.12
0.30
0.30
0.14
-0.06
-0.18
-0.11
0.11
0.37
0.53
0.50
0.29
0.03
-0.15
-0.18
-0.05
0.16
0.36
0.50
0.58
0.64
0.71
0.78
0.85
0.88
0.87
0.82
0.74
0.64
0.51
0.35
0.17
0.03
-0.06
-0.11
-0.15
-0.24
-0.37
-0.50
-0.55
-0.43
-0.14
0.23
0.58
0.77
0.74
0.49
0.09
-0.38
-0.81
-1.11
-1.18
-0.99
-0.57
-0.05
0.39
0.62
0.55
0.25
-0.16
-0.52
-0.72
-0.75
-0.64
-0.51
-0.41
-0.40
-0.43
-0.46
-0.43
-0.30
-0.10
0.10
0.23
0.26
0.18
0.08
0.01
0.00
0.06
0.13
0.19
0.23
0.26
0.33
0.46
0.64
0.80
0.89
0.87
0.77
0.62
0.48
0.38
0.30
0.23
0.15
0.06
-0.00
-0.03
-0.02
-0.00
0.00
-0.03
-0.11
-0.22
-0.35
-0.48
-0.58
-0.60
-0.50
-0.28
-0.00
0.25
0.38
0.39
0.30
0.18
0.08
-0.04
-0.22
-0.49
-0.84
-1.16
-1.33
-1.30
-1.11
-0.87
-0.67
-0.56
-0.48
-0.36
-0.15
0.15
0.49
0.81
1.03
1.14
1.12
1.01
0.86
0.78
0.79
0.90
1.00
0.98
0.80
0.49
0.20
0.07
0.18
0.44
0.68
0.71
0.47
0.03
-0.47
-0.87
-1.08
-1.13
-1.08
-0.99
-0.89
-0.78
-0.62
-0.43
-0.22
-0.05
0.04
0.02
-0.07
-0.17
-0.24
-0.23
-0.15
-0.03
0.13
0.31
0.54
0.79
1.03
1.16
1.11
0.85
0.46
0.07
-0.18
-0.22
-0.10
0.06
0.12
0.03
-0.15
-0.34
-0.47
-0.52
-0.52
-0.54
-0.61
-0.71
-0.77
-0.75
-0.61
-0.42
-0.25
-0.19
-0.26
-0.41
-0.50
-0.43
-0.11
0.38
0.91
1.29
1.38
1.16
0.72
0.22
-0.19
-0.40
-0.41
-0.26
-0.06
0.09
0.13
0.03
-0.14
-0.30
-0.36
-0.27
-0.06
0.23
0.50
0.69
0.78
0.79
0.73
0.63
0.47
0.26
0.01
-0.21
-0.33
-0.30
-0.17
-0.01
0.07
0.03
-0.09
-0.22
-0.28
-0.26
-0.22
-0.25
-0.39
-0.63
-0.90
-1.11
-1.21
-1.19
-1.08
-0.94
-0.81
-0.74
-0.68
-0.61
-0.44
-0.14
0.26
0.66
0.95
1.07
1.04
0.97
0.95
1.01
1.09
1.07
0.88
0.55
0.19
-0.06
-0.11
-0.03
0.06
0.04
-0.10
-0.27
-0.34
-0.21
0.08
0.39
0.58
0.56
0.36
0.06
-0.19
-0.33
-0.36
-0.30
-0.20
-0.08
0.04
0.13
0.12
-0.01
-0.25
-0.50
-0.65
-0.64
-0.48
-0.24
-0.03
0.09
0.10
0.07
0.07
0.12
0.20
0.26
0.23
0.10
-0.11
-0.30
-0.37
-0.26
0.01
0.37
0.65
0.73
0.60
0.33
0.09
0.01
0.12
0.33
0.49
0.47
0.22
-0.20
-0.65
-1.02
-1.21
-1.18
-0.97
-0.65
-0.34
-0.13
-0.12
-0.30
-0.59
-0.86
-1.02
-1.02
-0.90
-0.74
-0.59
-0.46
-0.31
-0.11
0.15
0.39
0.54
0.56
0.48
0.36
0.31
0.36
0.47
0.56
0.57
0.49
0.39
0.32
0.34
0.45
0.60
0.70
0.70
0.58
0.33
0.00
-0.35
-0.66
-0.84
-0.86
-0.71
-0.41
-0.02
0.37
0.70
0.91
0.96
0.84
0.58
0.24
-0.07
-0.26
-0.28
-0.16
0.04
0.22
0.33
0.32
0.22
0.07
-0.10
-0.23
-0.32
-0.34
-0.31
-0.24
-0.17
-0.10
-0.06
-0.07
-0.15
-0.31
-0.53
-0.76
-0.92
-0.94
-0.79
-0.52
-0.17
0.18
0.51
0.76
0.87
0.81
0.54
0.15
-0.26
-0.55
-0.68
-0.68
-0.63
-0.60
-0.59
-0.55
-0.41
-0.18
0.08
0.28
0.40
0.48
0.57
0.68
0.76
0.74
0.59
0.34
0.10
0.00
0.09
0.32
0.54
0.61
0.45
0.09
-0.35
-0.67
-0.74
-0.52
-0.07
0.45
0.87
1.08
1.02
0.74
0.32
-0.12
-0.47
-0.66
-0.68
-0.58
-0.41
-0.25
-0.11
0.00
0.10
0.20
0.27
0.27
0.18
0.04
-0.07
-0.07
0.05
0.22
0.33
0.29
0.10
-0.13
-0.26
-0.19
0.04
0.35
0.61
0.74
0.74
0.65
0.49
0.28
-0.02
-0.38
-0.73
-1.01
-1.14
-1.10
-0.94
-0.74
-0.55
-0.41
-0.32
-0.27
-0.25
-0.22
-0.17
-0.07
0.06
0.16
0.19
0.11
-0.03
-0.13
-0.05
0.23
0.62
0.95
1.02
0.76
0.25
-0.30
-0.70
-0.82
-0.69
-0.43
-0.19
-0.03
0.03
0.05
0.09
0.17
0.28
0.39
0.47
0.51
0.48
0.38
0.21
-0.01
-0.22
-0.38
-0.42
-0.29
-0.02
0.37
0.77
1.10
1.27
1.21
0.90
0.42
-0.13
-0.60
-0.86
-0.89
-0.75
-0.58
-0.49
-0.51
-0.58
-0.59
-0.43
-0.12
0.21
0.38
0.32
0.06
-0.23
-0.36
-0.23
0.10
0.43
0.58
0.47
0.14
-0.23
-0.49
-0.58
-0.55
-0.48
-0.43
-0.39
-0.32
-0.17
0.03
0.24
0.37
0.40
0.33
0.21
0.07
-0.08
-0.25
-0.43
-0.60
-0.69
-0.66
-0.47
-0.20
0.07
0.26
0.34
0.35
0.36
0.40
0.47
0.53
0.51
0.40
0.26
0.14
0.11
0.17
0.29
0.39
0.43
0.38
0.26
0.11
-0.02
-0.08
-0.06
0.03
0.17
0.32
0.41
0.40
0.23
-0.09
-0.48
-0.82
-0.95
-0.81
-0.45
-0.04
0.22
0.18
-0.15
-0.62
-1.05
-1.29
-1.32
-1.17
-0.92
-0.61
-0.25
0.14
0.54
0.87
1.05
1.04
0.82
0.46
0.07
-0.26
-0.44
-0.44
-0.31
-0.12
0.01
0.01
-0.11
-0.27
-0.34
-0.25
0.00
0.33
0.61
0.76
0.73
0.56
0.32
0.10
-0.02
-0.01
0.11
0.28
0.47
0.62
0.73
0.83
0.95
1.07
1.17
1.17
1.01
0.70
0.31
-0.07
-0.34
-0.44
-0.36
-0.18
0.02
0.16
0.18
0.07
-0.13
-0.35
-0.54
-0.64
-0.70
-0.78
-0.91
-1.11
-1.29
-1.34
-1.19
-0.84
-0.43
-0.12
-0.03
-0.14
-0.35
-0.49
-0.46
-0.29
-0.05
0.13
0.22
0.21
0.19
0.17
0.19
0.21
0.26
0.36
0.57
0.87
1.19
1.40
1.37
1.08
0.60
0.07
-0.36
-0.62
-0.70
-0.65
-0.50
-0.31
-0.12
0.01
0.02
-0.10
-0.33
-0.56
-0.67
-0.57
-0.27
0.16
0.61
0.94
1.05
0.92
0.58
0.14
-0.24
-0.45
-0.42
-0.20
0.10
0.31
0.32
0.15
-0.11
-0.28
-0.25
-0.01
0.33
0.62
0.76
0.73
0.61
0.49
0.39
0.29
0.14
-0.09
-0.34
-0.53
-0.59
-0.56
-0.51
-0.53
-0.63
-0.72
-0.65
-0.39
0.02
0.44
0.70
0.73
0.57
0.33
0.13
0.04
0.04
0.06
0.05
-0.03
-0.17
-0.37
-0.56
-0.71
-0.77
-0.71
-0.57
-0.39
-0.27
-0.21
-0.19
-0.16
-0.07
0.08
0.25
0.36
0.33
0.19
0.01
-0.14
-0.19
-0.15
-0.07
-0.02
-0.02
-0.03
0.03
0.19
0.43
0.68
0.87
0.96
0.95
0.83
0.62
0.29
-0.11
-0.51
-0.76
-0.74
-0.40
0.15
0.67
0.93
0.81
0.35
-0.26
-0.79
-1.06
-1.05
-0.80
-0.46
-0.19
-0.09
-0.22
-0.52
-0.84
-1.03
-0.96
-0.62
-0.11
0.40
0.75
0.86
0.75
0.50
0.20
-0.07
-0.27
-0.34
-0.26
-0.05
0.22
0.47
0.61
0.62
0.55
0.45
0.38
0.34
0.31
0.25
0.14
0.02
-0.05
-0.03
0.08
0.24
0.38
0.44
0.40
0.31
0.22
0.22
0.31
0.47
0.59
0.60
0.48
0.26
0.02
-0.13
-0.16
-0.09
0.04
0.15
0.16
0.04
-0.20
-0.48
-0.73
-0.87
-0.88
-0.77
-0.63
-0.52
-0.45
-0.43
-0.40
-0.35
-0.30
-0.30
-0.39
-0.56
-0.72
-0.79
-0.73
-0.54
-0.29
-0.05
0.16
0.35
0.52
0.65
0.68
0.55
0.25
-0.13
-0.43
-0.51
-0.31
0.08
0.52
0.82
0.87
0.70
0.43
0.17
-0.01
-0.10
-0.17
-0.27
-0.39
-0.48
-0.51
-0.46
-0.40
-0.38
-0.42
-0.46
-0.41
-0.22
0.06
0.33
0.49
0.50
0.42
0.33
0.30
0.31
0.30
0.20
0.04
-0.10
-0.07
0.18
0.57
0.92
1.05
0.85
0.35
-0.25
-0.76
-1.02
-1.00
-0.79
-0.53
-0.32
-0.21
-0.15
-0.05
0.12
0.31
0.42
0.35
0.09
-0.28
-0.58
-0.65
-0.46
-0.09
0.31
0.58
0.65
0.55
0.36
0.16
0.02
-0.03
-0.02
0.06
0.20
0.38
0.59
0.80
0.96
1.01
0.89
0.61
0.23
-0.11
-0.29
-0.28
-0.15
-0.05
-0.08
-0.26
-0.51
-0.70
-0.75
-0.67
-0.54
-0.45
-0.41
-0.38
-0.30
-0.15
0.03
0.16
0.19
0.11
-0.06
-0.28
-0.49
-0.61
-0.62
-0.46
-0.17
0.17
0.44
0.56
0.47
0.21
-0.11
-0.37
-0.51
-0.49
-0.37
-0.20
-0.03
0.13
0.26
0.37
0.48
0.57
0.64
0.66
0.58
0.39
0.10
-0.20
-0.41
-0.42
-0.21
0.16
0.56
0.85
0.92
0.79
0.54
0.30
0.12
0.00
-0.08
-0.19
-0.32
-0.42
-0.44
-0.37
-0.22
-0.08
-0.02
-0.06
-0.15
-0.24
-0.23
-0.13
0.03
0.17
0.25
0.23
0.12
-0.08
-0.31
-0.52
-0.61
-0.50
-0.21
0.18
0.51
0.61
0.44
0.09
-0.28
-0.51
-0.52
-0.35
-0.10
0.13
0.27
0.31
0.26
0.15
-0.01
-0.18
-0.28
-0.27
-0.14
0.04
0.13
0.06
-0.16
-0.42
-0.53
-0.39
-0.02
0.42
0.73
0.77
0.54
0.16
-0.18
-0.39
-0.45
-0.45
-0.48
-0.53
-0.53
-0.40
-0.11
0.30
0.70
0.97
1.06
0.99
0.84
0.66
0.51
0.37
0.23
0.06
-0.15
-0.36
-0.53
-0.60
-0.52
-0.32
-0.06
0.16
0.27
0.27
0.19
0.08
-0.04
-0.20
-0.38
-0.59
-0.73
-0.76
-0.65
-0.45
-0.25
-0.11
-0.06
-0.03
0.02
0.11
0.18
0.18
0.09
-0.03
-0.10
-0.05
0.09
0.25
0.34
0.31
0.18
0.02
-0.09
-0.11
-0.03
0.10
0.23
0.31
0.31
0.24
0.10
-0.06
-0.20
-0.26
-0.21
-0.08
0.09
0.22
0.26
0.18
0.04
-0.12
-0.23
-0.24
-0.16
-0.03
0.11
0.16
0.08
-0.12
-0.38
-0.60
-0.68
-0.55
-0.24
0.15
0.50
0.69
0.72
0.63
0.52
0.47
0.49
0.56
0.63
0.63
0.56
0.41
0.18
-0.08
-0.35
-0.57
-0.70
-0.72
-0.65
-0.54
-0.42
-0.34
-0.27
-0.22
-0.18
-0.18
-0.23
-0.33
-0.42
-0.47
-0.44
-0.33
-0.19
-0.07
0.02
0.08
0.14
0.23
0.35
0.46
0.53
0.49
0.34
0.08
-0.26
-0.60
-0.86
-0.95
-0.86
-0.61
-0.34
-0.16
-0.15
-0.26
-0.41
-0.45
-0.35
-0.13
0.09
0.20
0.17
0.07
-0.01
0.03
0.20
0.44
0.67
0.80
0.85
0.85
0.84
0.80
0.71
0.53
0.27
0.02
-0.12
-0.08
0.14
0.40
0.58
0.59
0.41
0.16
-0.05
-0.14
-0.09
0.04
0.13
0.14
0.03
-0.15
-0.32
-0.42
-0.41
-0.29
-0.14
-0.00
0.06
0.04
-0.04
-0.15
-0.25
-0.34
-0.38
-0.39
-0.35
-0.28
-0.22
-0.19
-0.18
-0.15
-0.04
0.18
0.47
0.75
0.93
0.95
0.80
0.55
0.27
0.07
0.01
0.10
0.28
0.42
0.42
0.23
-0.09
-0.39
-0.51
-0.40
-0.12
0.17
0.31
0.25
0.09
-0.02
0.04
0.26
0.51
0.61
0.46
0.06
-0.43
-0.78
-0.85
-0.63
-0.30
-0.04
-0.00
-0.18
-0.45
-0.63
-0.61
-0.41
-0.15
0.06
0.15
0.18
0.21
0.31
0.45
0.58
0.61
0.53
0.35
0.12
-0.11
-0.32
-0.49
-0.62
-0.71
-0.75
-0.71
-0.59
-0.39
-0.14
0.07
0.18
0.15
-0.01
-0.20
-0.31
-0.26
-0.06
0.22
0.47
0.57
0.50
0.29
0.02
-0.22
-0.36
-0.39
-0.29
-0.12
0.07
0.22
0.29
0.27
0.17
-0.00
-0.21
-0.44
-0.64
-0.78
-0.81
-0.74
-0.58
-0.39
-0.20
-0.02
0.17
0.33
0.42
0.35
0.08
-0.35
-0.75
-0.94
-0.78
-0.31
0.28
0.70
0.75
0.43
-0.08
-0.44
-0.45
-0.07
0.52
1.02
1.19
0.97
0.45
-0.13
-0.56
-0.75
-0.73
-0.60
-0.49
-0.43
-0.42
-0.42
-0.41
-0.37
-0.30
-0.17
0.03
0.31
0.63
0.92
1.10
1.11
0.97
0.74
0.52
0.41
0.44
0.60
0.83
1.04
1.13
1.07
0.84
0.53
0.23
0.04
-0.02
0.01
0.02
-0.09
-0.33
-0.64
-0.92
-1.05
-1.00
-0.84
-0.66
-0.50
-0.40
-0.28
-0.10
0.13
0.32
0.37
0.22
-0.10
-0.48
-0.78
-0.90
-0.84
-0.66
-0.44
-0.28
-0.22
-0.28
-0.41
-0.52
-0.54
-0.41
-0.12
0.25
0.59
0.80
0.85
0.76
0.59
0.43
0.32
0.28
0.33
0.43
0.56
0.65
0.63
0.46
0.20
-0.07
-0.25
-0.29
-0.22
-0.13
-0.10
-0.14
-0.24
-0.32
-0.34
-0.26
-0.13
0.01
0.12
0.20
0.23
0.23
0.19
0.12
0.05
-0.02
-0.08
-0.13
-0.18
-0.25
-0.28
-0.22
-0.03
0.28
0.62
0.86
0.89
0.67
0.28
-0.14
-0.48
-0.66
-0.70
-0.65
-0.57
-0.47
-0.34
-0.16
0.01
0.14
0.20
0.19
0.20
0.28
0.44
0.63
0.79
0.88
0.90
0.88
0.83
0.71
0.46
0.09
-0.37
-0.79
-1.09
-1.22
-1.23
-1.18
-1.09
-0.93
-0.68
-0.35
-0.01
0.24
0.32
0.26
0.13
-0.00
-0.09
-0.16
-0.27
-0.40
-0.51
-0.48
-0.24
0.18
0.69
1.10
1.27
1.14
0.77
0.30
-0.12
-0.39
-0.51
-0.51
-0.46
-0.36
-0.22
-0.01
0.25
0.50
0.68
0.72
0.63
0.46
0.29
0.16
0.11
0.09
0.07
0.05
0.06
0.16
0.38
0.68
0.95
1.10
1.04
0.79
0.42
0.04
-0.27
-0.52
-0.73
-0.95
-1.16
-1.27
-1.24
-1.07
-0.84
-0.66
-0.63
-0.70
-0.76
-0.67
-0.37
0.05
0.43
0.58
0.42
0.02
-0.43
-0.78
-0.92
-0.87
-0.71
-0.51
-0.32
-0.12
0.09
0.30
0.49
0.63
0.71
0.75
0.77
0.77
0.74
0.65
0.49
0.25
-0.04
-0.29
-0.43
-0.39
-0.17
0.16
0.49
0.68
0.66
0.46
0.15
-0.15
-0.35
-0.43
-0.41
-0.31
-0.16
0.04
0.28
0.53
0.71
0.78
0.71
0.52
0.28
0.03
-0.18
-0.33
-0.43
-0.49
-0.53
-0.56
-0.59
-0.63
-0.67
-0.67
-0.61
-0.49
-0.30
-0.09
0.13
0.37
0.62
0.86
1.04
1.05
0.83
0.40
-0.12
-0.53
-0.67
-0.50
-0.14
0.20
0.37
0.34
0.18
0.06
0.07
0.22
0.42
0.51
0.41
0.12
-0.28
-0.68
-0.99
-1.14
-1.11
-0.91
-0.56
-0.15
0.23
0.46
0.49
0.32
0.05
-0.19
-0.26
-0.12
0.21
0.63
1.00
1.20
1.16
0.87
0.39
-0.16
-0.62
-0.85
-0.77
-0.42
0.08
0.59
0.97
1.18
1.21
1.07
0.79
0.40
-0.02
-0.41
-0.64
-0.67
-0.51
-0.25
-0.01
0.12
0.13
0.04
-0.09
-0.24
-0.39
-0.56
-0.75
-0.93
-1.07
-1.09
-0.97
-0.70
-0.31
0.11
0.47
0.66
0.64
0.40
0.06
-0.23
-0.35
-0.27
-0.04
0.21
0.38
0.38
0.25
0.04
-0.20
-0.40
-0.55
-0.63
-0.61
-0.47
-0.23
0.06
0.36
0.60
0.73
0.76
0.69
0.53
0.29
-0.01
-0.33
-0.62
-0.82
-0.91
-0.88
-0.77
-0.61
-0.43
-0.24
-0.06
0.12
0.29
0.45
0.60
0.72
0.78
0.76
0.65
0.45
0.22
-0.00
-0.17
-0.28
-0.31
-0.24
-0.09
0.12
0.33
0.47
0.48
0.38
0.23
0.15
0.19
0.37
0.57
0.67
0.58
0.32
-0.00
-0.22
-0.23
-0.04
0.23
0.42
0.45
0.32
0.12
-0.03
-0.08
-0.07
-0.08
-0.19
-0.38
-0.55
-0.60
-0.49
-0.24
0.03
0.24
0.34
0.33
0.27
0.19
0.11
-0.00
-0.16
-0.34
-0.53
-0.67
-0.72
-0.70
-0.63
-0.57
-0.52
-0.45
-0.33
-0.13
0.14
0.39
0.52
0.47
0.25
-0.06
-0.37
-0.59
-0.66
-0.62
-0.52
-0.42
-0.35
-0.32
-0.33
-0.36
-0.39
-0.37
-0.28
-0.15
-0.00
0.09
0.10
0.07
0.06
0.15
0.36
0.65
0.91
1.02
0.96
0.77
0.57
0.42
0.39
0.44
0.53
0.63
0.71
0.75
0.73
0.65
0.47
0.21
-0.11
-0.42
-0.68
-0.83
-0.84
-0.70
-0.45
-0.14
0.16
0.38
0.45
0.34
0.07
-0.28
-0.61
-0.82
-0.82
-0.63
-0.28
0.12
0.46
0.66
0.68
0.53
0.26
-0.05
-0.34
-0.54
-0.61
-0.54
-0.36
-0.12
0.08
0.19
0.15
0.01
-0.17
-0.30
-0.33
-0.25
-0.12
-0.02
-0.00
-0.09
-0.22
-0.32
-0.31
-0.17
0.06
0.27
0.36
0.29
0.11
-0.08
-0.13
0.01
0.35
0.76
1.10
1.24
1.13
0.83
0.45
0.10
-0.12
-0.20
-0.16
-0.05
0.11
0.31
0.54
0.76
0.90
0.91
0.72
0.35
-0.12
-0.57
-0.89
-1.04
-1.02
-0.92
-0.80
-0.71
-0.66
-0.66
-0.70
-0.79
-0.91
-0.99
-0.95
-0.73
-0.34
0.13
0.50
0.66
0.57
0.31
0.06
-0.03
0.10
0.36
0.60
0.72
0.66
0.49
0.32
0.24
0.29
0.43
0.60
0.69
0.68
0.54
0.32
0.07
-0.15
-0.29
-0.37
-0.39
-0.37
-0.29
-0.13
0.13
0.42
0.64
0.64
0.38
-0.08
-0.58
-0.94
-1.05
-0.90
-0.59
-0.23
0.08
0.29
0.37
0.33
0.17
-0.10
-0.42
-0.73
-0.97
-1.06
-0.98
-0.76
-0.43
-0.09
0.19
0.34
0.34
0.22
0.06
-0.06
-0.07
0.04
0.20
0.34
0.37
0.30
0.18
0.08
0.07
0.14
0.22
0.22
0.12
-0.06
-0.24
-0.35
-0.39
-0.40
-0.40
-0.40
-0.37
-0.27
-0.11
0.07
0.23
0.33
0.35
0.31
0.20
0.03
-0.15
-0.28
-0.28
-0.13
0.12
0.38
0.55
0.56
0.45
0.32
0.23
0.22
0.26
0.29
0.25
0.15
0.02
-0.08
-0.15
-0.21
-0.32
-0.50
-0.70
-0.84
-0.82
-0.62
-0.32
-0.04
0.08
-0.00
-0.20
-0.37
-0.41
-0.30
-0.12
0.05
0.15
0.21
0.27
0.38
0.51
0.59
0.57
0.45
0.26
0.10
0.00
0.00
0.06
0.15
0.25
0.36
0.46
0.56
0.64
0.71
0.75
0.75
0.67
0.51
0.29
0.05
-0.14
-0.23
-0.23
-0.16
-0.10
-0.10
-0.18
-0.29
-0.40
-0.47
-0.47
-0.42
-0.33
-0.21
-0.11
-0.04
-0.03
-0.07
-0.15
-0.24
-0.31
-0.33
-0.32
-0.29
-0.29
-0.33
-0.42
-0.52
-0.56
-0.51
-0.30
0.02
0.37
0.64
0.72
0.59
0.30
-0.02
-0.25
-0.31
-0.20
-0.01
0.17
0.26
0.22
0.09
-0.07
-0.19
-0.22
-0.16
-0.06
0.04
0.10
0.12
0.15
0.22
0.30
0.38
0.40
0.35
0.27
0.20
0.21
0.28
0.37
0.38
0.29
0.11
-0.07
-0.19
-0.18
-0.03
0.23
0.51
0.74
0.86
0.82
0.64
0.40
0.16
-0.02
-0.11
-0.16
-0.19
-0.23
-0.25
-0.24
-0.17
-0.07
0.01
0.02
-0.08
-0.25
-0.44
-0.57
-0.63
-0.65
-0.70
-0.80
-0.90
-0.93
-0.81
-0.55
-0.22
0.04
0.15
0.12
0.02
-0.04
-0.03
0.02
-0.00
-0.15
-0.41
-0.66
-0.77
-0.66
-0.33
0.08
0.47
0.72
0.83
0.86
0.89
0.97
1.08
1.17
1.15
0.95
0.61
0.22
-0.08
-0.21
-0.13
0.07
0.26
0.34
0.27
0.08
-0.14
-0.31
-0.40
-0.44
-0.48
-0.54
-0.60
-0.62
-0.58
-0.48
-0.36
-0.27
-0.24
-0.26
-0.33
-0.39
-0.39
-0.30
-0.10
0.19
0.48
0.67
0.65
0.42
0.08
-0.22
-0.32
-0.20
0.07
0.31
0.40
0.28
0.05
-0.18
-0.27
-0.21
-0.04
0.13
0.25
0.29
0.30
0.32
0.37
0.41
0.38
0.22
-0.04
-0.36
-0.65
-0.82
-0.84
-0.71
-0.50
-0.26
-0.06
0.08
0.12
0.09
-0.00
-0.10
-0.17
-0.17
-0.11
0.00
0.13
0.24
0.31
0.33
0.31
0.26
0.24
0.30
0.47
0.69
0.87
0.92
0.77
0.44
0.03
-0.32
-0.53
-0.58
-0.52
-0.44
-0.39
-0.38
-0.36
-0.27
-0.08
0.20
0.49
0.69
0.73
0.57
0.30
0.02
-0.18
-0.28
-0.33
-0.42
-0.57
-0.71
-0.74
-0.59
-0.27
0.08
0.29
0.27
0.05
-0.21
-0.36
-0.31
-0.15
-0.02
-0.07
-0.30
-0.59
-0.76
-0.66
-0.30
0.20
0.65
0.91
0.98
0.92
0.84
0.78
0.73
0.63
0.46
0.22
0.01
-0.09
0.01
0.27
0.59
0.83
0.85
0.62
0.19
-0.30
-0.68
-0.84
-0.76
-0.52
-0.25
-0.06
-0.03
-0.17
-0.40
-0.63
-0.76
-0.72
-0.54
-0.29
-0.08
-0.00
-0.09
-0.31
-0.55
-0.72
-0.74
-0.65
-0.51
-0.36
-0.21
-0.03
0.21
0.50
0.76
0.89
0.81
0.52
0.14
-0.18
-0.33
-0.28
-0.12
0.04
0.10
0.05
-0.10
-0.29
-0.47
-0.59
-0.64
-0.61
-0.46
-0.22
0.09
0.39
0.61
0.67
0.57
0.35
0.11
-0.04
-0.06
0.06
0.24
0.38
0.44
0.40
0.31
0.24
0.25
0.32
0.43
0.51
0.52
0.47
0.39
0.33
0.33
0.36
0.37
0.31
0.13
-0.14
-0.45
-0.70
-0.81
-0.77
-0.66
-0.59
-0.63
-0.77
-0.92
-0.99
-0.91
-0.70
-0.44
-0.21
-0.03
0.13
0.34
0.59
0.84
1.01
1.06
1.00
0.88
0.75
0.65
0.58
0.53
0.51
0.52
0.52
0.45
0.27
-0.03
-0.37
-0.60
-0.64
-0.50
-0.30
-0.19
-0.25
-0.45
-0.65
-0.74
-0.63
-0.38
-0.09
0.15
0.29
0.36
0.38
0.35
0.29
0.20
0.12
0.11
0.19
0.35
0.50
0.56
0.49
0.32
0.11
-0.06
-0.18
-0.27
-0.38
-0.53
-0.68
-0.77
-0.74
-0.53
-0.17
0.25
0.61
0.82
0.83
0.66
0.42
0.21
0.07
-0.03
-0.17
-0.39
-0.64
-0.79
-0.76
-0.52
-0.18
0.08
0.15
0.01
-0.23
-0.44
-0.54
-0.53
-0.45
-0.34
-0.19
0.04
0.36
0.71
0.96
0.97
0.69
0.17
-0.43
-0.90
-1.07
-0.91
-0.53
-0.09
0.21
0.28
0.14
-0.11
-0.34
-0.47
-0.50
-0.44
-0.35
-0.25
-0.13
-0.02
0.08
0.16
0.22
0.31
0.47
0.68
0.89
0.99
0.94
0.75
0.51
0.34
0.25
0.21
0.15
0.02
-0.15
-0.30
-0.38
-0.40
-0.42
-0.48
-0.58
-0.66
-0.61
-0.42
-0.12
0.17
0.34
0.34
0.21
0.05
-0.06
-0.08
-0.05
-0.04
-0.11
-0.24
-0.35
-0.36
-0.21
0.06
0.35
0.57
0.65
0.64
0.60
0.59
0.61
0.63
0.59
0.46
0.28
0.10
-0.04
-0.15
-0.26
-0.38
-0.50
-0.56
-0.53
-0.39
-0.19
0.02
0.18
0.26
0.23
0.10
-0.09
-0.29
-0.43
-0.45
-0.33
-0.13
0.07
0.17
0.13
-0.01
-0.17
-0.25
-0.26
-0.22
-0.22
-0.28
-0.38
-0.46
-0.45
-0.32
-0.11
0.15
0.41
0.63
0.80
0.90
0.91
0.85
0.73
0.58
0.42
0.24
0.04
-0.19
-0.44
-0.62
-0.68
-0.59
-0.38
-0.13
0.06
0.10
-0.04
-0.31
-0.57
-0.70
-0.61
-0.34
0.02
0.34
0.50
0.52
0.47
0.44
0.45
0.49
0.44
0.29
0.06
-0.14
-0.20
-0.06
0.21
0.48
0.61
0.54
0.30
-0.03
-0.32
-0.51
-0.59
-0.59
-0.57
-0.56
-0.57
-0.58
-0.55
-0.49
-0.37
-0.24
-0.10
0.01
0.09
0.15
0.19
0.23
0.27
0.30
0.27
0.18
0.01
-0.21
-0.38
-0.45
-0.35
-0.09
0.25
0.55
0.71
0.69
0.52
0.31
0.16
0.13
0.17
0.22
0.20
0.11
-0.01
-0.08
-0.06
0.02
0.08
0.05
-0.09
-0.27
-0.35
-0.28
-0.05
0.22
0.38
0.35
0.13
-0.16
-0.40
-0.46
-0.33
-0.06
0.23
0.45
0.51
0.39
0.13
-0.21
-0.53
-0.75
-0.81
-0.67
-0.36
0.02
0.35
0.55
0.57
0.47
0.32
0.19
0.12
0.09
0.08
0.10
0.15
0.27
0.48
0.76
1.04
1.24
1.28
1.13
0.80
0.38
-0.02
-0.28
-0.33
-0.19
0.02
0.18
0.19
0.07
-0.11
-0.27
-0.38
-0.48
-0.58
-0.70
-0.77
-0.71
-0.54
-0.33
-0.22
-0.30
-0.57
-0.95
-1.28
-1.45
-1.42
-1.23
-0.95
-0.63
-0.31
-0.04
0.17
0.28
0.27
0.19
0.10
0.09
0.19
0.38
0.56
0.63
0.52
0.30
0.07
-0.02
0.07
0.31
0.54
0.63
0.56
0.40
0.28
0.30
0.43
0.53
0.47
0.19
-0.21
-0.54
-0.64
-0.47
-0.15
0.14
0.25
0.15
-0.11
-0.38
-0.57
-0.63
-0.59
-0.49
-0.38
-0.30
-0.25
-0.23
-0.22
-0.19
-0.15
-0.11
-0.09
-0.08
-0.07
-0.01
0.15
0.39
0.65
0.84
0.91
0.85
0.73
0.59
0.48
0.40
0.32
0.22
0.10
-0.01
-0.09
-0.13
-0.14
-0.14
-0.11
-0.05
0.03
0.12
0.17
0.16
0.09
-0.00
-0.11
-0.22
-0.35
-0.49
-0.62
-0.68
-0.57
-0.30
0.10
0.47
0.65
0.56
0.24
-0.17
-0.47
-0.55
-0.44
-0.26
-0.18
-0.24
-0.42
-0.57
-0.60
-0.46
-0.19
0.13
0.41
0.58
0.61
0.48
0.22
-0.11
-0.40
-0.52
-0.41
-0.08
0.37
0.76
0.97
0.95
0.74
0.45
0.17
-0.06
-0.24
-0.39
-0.51
-0.61
-0.67
-0.68
-0.64
-0.52
-0.33
-0.06
0.22
0.46
0.58
0.57
0.48
0.40
0.44
0.62
0.88
1.13
1.27
1.25
1.09
0.84
0.54
0.22
-0.10
-0.44
-0.77
-1.02
-1.17
-1.17
-1.04
-0.81
-0.56
-0.34
-0.23
-0.23
-0.34
-0.52
-0.71
-0.85
-0.90
-0.84
-0.68
-0.45
-0.17
0.11
0.34
0.45
0.40
0.19
-0.09
-0.29
-0.34
-0.21
-0.02
0.11
0.09
-0.03
-0.15
-0.13
0.06
0.36
0.65
0.80
0.79
0.63
0.40
0.16
-0.05
-0.21
-0.25
-0.17
0.03
0.28
0.49
0.58
0.55
0.41
0.24
0.06
-0.09
-0.22
-0.33
-0.39
-0.42
-0.41
-0.37
-0.31
-0.20
-0.04
0.18
0.46
0.75
0.97
1.05
0.98
0.75
0.42
0.06
-0.28
-0.54
-0.68
-0.68
-0.55
-0.35
-0.13
0.05
0.11
0.07
-0.08
-0.28
-0.46
-0.57
-0.58
-0.48
-0.28
-0.02
0.27
0.55
0.77
0.91
0.97
0.93
0.78
0.51
0.14
-0.29
-0.69
-0.99
-1.12
-1.08
-0.93
-0.70
-0.44
-0.18
0.07
0.30
0.46
0.53
0.48
0.36
0.23
0.17
0.23
0.40
0.64
0.84
0.92
0.86
0.66
0.42
0.20
0.07
0.02
-0.01
-0.07
-0.19
-0.35
-0.47
-0.52
-0.49
-0.43
-0.41
-0.46
-0.54
-0.57
-0.51
-0.36
-0.19
-0.12
-0.20
-0.38
-0.56
-0.57
-0.35
0.02
0.40
0.60
0.57
0.36
0.12
0.01
0.06
0.20
0.31
0.31
0.20
0.11
0.13
0.27
0.42
0.44
0.26
-0.05
-0.36
-0.51
-0.45
-0.28
-0.16
-0.20
-0.37
-0.55
-0.58
-0.39
-0.07
0.21
0.30
0.21
0.07
0.04
0.17
0.41
0.61
0.63
0.45
0.16
-0.10
-0.25
-0.27
-0.25
-0.26
-0.33
-0.41
-0.39
-0.22
0.10
0.47
0.72
0.73
0.45
-0.03
-0.54
-0.88
-0.92
-0.64
-0.17
0.31
0.63
0.70
0.58
0.37
0.18
0.05
-0.06
-0.20
-0.40
-0.61
-0.73
-0.66
-0.37
0.03
0.39
0.55
0.45
0.15
-0.19
-0.40
-0.40
-0.17
0.17
0.52
0.77
0.84
0.74
0.48
0.12
-0.27
-0.60
-0.77
-0.75
-0.56
-0.29
-0.09
-0.04
-0.18
-0.41
-0.59
-0.61
-0.42
-0.09
0.25
0.48
0.56
0.51
0.38
0.25
0.18
0.19
0.29
0.47
0.69
0.86
0.93
0.88
0.75
0.61
0.52
0.49
0.48
0.39
0.19
-0.08
-0.35
-0.52
-0.55
-0.46
-0.33
-0.25
-0.29
-0.43
-0.62
-0.76
-0.80
-0.70
-0.48
-0.18
0.10
0.32
0.44
0.47
0.44
0.38
0.28
0.13
-0.07
-0.32
-0.56
-0.72
-0.71
-0.54
-0.24
0.10
0.38
0.58
0.66
0.63
0.49
0.28
0.04
-0.14
-0.16
0.01
0.31
0.60
0.71
0.56
0.16
-0.31
-0.69
-0.82
-0.69
-0.38
-0.06
0.15
0.21
0.13
-0.00
-0.13
-0.23
-0.33
-0.45
-0.56
-0.63
-0.62
-0.56
-0.51
-0.54
-0.69
-0.87
-0.97
-0.89
-0.61
-0.19
0.23
0.58
0.82
0.98
1.08
1.11
1.04
0.85
0.57
0.33
0.20
0.23
0.33
0.35
0.18
-0.19
-0.62
-0.94
-1.02
-0.83
-0.44
0.01
0.44
0.79
1.05
1.22
1.27
1.19
0.99
0.72
0.45
0.24
0.10
-0.01
-0.14
-0.31
-0.52
-0.70
-0.77
-0.70
-0.47
-0.17
0.10
0.26
0.28
0.23
0.21
0.30
0.47
0.62
0.63
0.41
0.03
-0.40
-0.72
-0.87
-0.87
-0.81
-0.75
-0.69
-0.60
-0.44
-0.25
-0.08
0.01
-0.01
-0.09
-0.19
-0.28
-0.36
-0.46
-0.58
-0.66
-0.66
-0.52
-0.29
-0.06
0.06
0.02
-0.16
-0.41
-0.62
-0.74
-0.79
-0.83
-0.90
-0.97
-0.96
-0.77
-0.37
0.20
0.79
1.24
1.46
1.44
1.25
0.95
0.60
0.21
-0.16
-0.41
-0.41
-0.08
0.54
1.27
1.87
2.15
2.08
1.74
1.31
0.95
0.71
0.56
0.43
0.32
0.23
0.19
0.21
0.24
0.24
0.19
0.07
-0.04
-0.10
-0.08
0.01
0.12
0.19
0.17
0.02
-0.27
-0.64
-1.02
-1.34
-1.53
-1.52
-1.35
-1.06
-0.75
-0.51
-0.39
-0.39
-0.47
-0.55
-0.55
-0.42
-0.15
0.21
0.53
0.71
0.65
0.37
-0.04
-0.41
-0.61
-0.55
-0.28
0.10
0.45
0.67
0.70
0.55
0.25
-0.09
-0.38
-0.53
-0.50
-0.31
-0.06
0.19
0.35
0.43
0.42
0.36
0.24
0.05
-0.21
-0.46
-0.59
-0.52
-0.24
0.17
0.55
0.75
0.72
0.48
0.15
-0.16
-0.36
-0.41
-0.35
-0.24
-0.14
-0.07
-0.03
0.03
0.14
0.32
0.53
0.68
0.69
0.56
0.34
0.12
-0.01
-0.02
0.05
0.12
0.15
0.13
0.07
-0.01
-0.12
-0.27
-0.47
-0.68
-0.85
-0.95
-0.95
-0.87
-0.74
-0.58
-0.43
-0.32
-0.26
-0.28
-0.35
-0.46
-0.53
-0.54
-0.47
-0.33
-0.15
0.07
0.31
0.57
0.81
0.97
1.01
0.92
0.75
0.55
0.37
0.23
0.10
-0.02
-0.13
-0.15
-0.06
0.13
0.33
0.44
0.39
0.22
0.03
-0.08
-0.08
-0.03
-0.06
-0.25
-0.54
-0.82
-0.93
-0.84
-0.62
-0.41
-0.32
-0.36
-0.44
-0.44
-0.32
-0.11
0.10
0.26
0.34
0.38
0.45
0.54
0.62
0.63
0.53
0.37
0.23
0.22
0.38
0.66
0.93
1.03
0.85
0.42
-0.11
-0.57
-0.80
-0.77
-0.52
-0.17
0.14
0.37
0.47
0.48
0.43
0.37
0.35
0.39
0.51
0.63
0.68
0.56
0.27
-0.12
-0.44
-0.58
-0.50
-0.28
-0.05
0.06
0.03
-0.06
-0.13
-0.12
-0.08
-0.09
-0.20
-0.40
-0.60
-0.69
-0.61
-0.39
-0.12
0.13
0.28
0.34
0.31
0.20
0.02
-0.22
-0.49
-0.71
-0.79
-0.68
-0.40
-0.03
0.30
0.48
0.46
0.25
-0.07
-0.38
-0.59
-0.66
-0.59
-0.40
-0.14
0.15
0.42
0.65
0.78
0.78
0.65
0.42
0.18
0.03
0.03
0.15
0.30
0.37
0.29
0.07
-0.18
-0.37
-0.42
-0.34
-0.23
-0.15
-0.14
-0.21
-0.30
-0.38
-0.39
-0.33
-0.16
0.11
0.45
0.78
1.02
1.12
1.10
0.98
0.79
0.51
0.13
-0.34
-0.79
-1.11
-1.17
-0.97
-0.60
-0.26
-0.10
-0.21
-0.54
-0.94
-1.24
-1.29
-1.07
-0.65
-0.18
0.16
0.30
0.24
0.10
0.02
0.09
0.27
0.45
0.54
0.50
0.40
0.35
0.40
0.53
0.65
0.68
0.59
0.47
0.39
0.37
0.38
0.32
0.15
-0.11
-0.38
-0.54
-0.53
-0.38
-0.16
0.03
0.11
0.06
-0.09
-0.30
-0.51
-0.66
-0.70
-0.59
-0.33
0.01
0.35
0.58
0.65
0.56
0.38
0.20
0.10
0.12
0.23
0.36
0.42
0.33
0.10
-0.20
-0.45
-0.57
-0.52
-0.33
-0.09
0.13
0.28
0.36
0.36
0.27
0.07
-0.25
-0.63
-0.96
-1.12
-1.01
-0.67
-0.16
0.35
0.75
0.96
0.99
0.89
0.75
0.61
0.52
0.47
0.44
0.43
0.45
0.50
0.58
0.63
0.58
0.35
-0.05
-0.54
-0.98
-1.18
-1.06
-0.68
-0.15
0.32
0.58
0.58
0.33
-0.07
-0.50
-0.86
-1.08
-1.12
-1.00
-0.76
-0.48
-0.19
0.08
0.35
0.60
0.82
0.93
0.91
0.74
0.46
0.17
-0.05
-0.13
-0.09
0.02
0.11
0.08
-0.07
-0.29
-0.47
-0.48
-0.26
0.17
0.68
1.12
1.36
1.36
1.17
0.88
0.58
0.29
0.03
-0.19
-0.35
-0.42
-0.36
-0.19
0.03
0.21
0.28
0.19
-0.03
-0.34
-0.65
-0.93
-1.14
-1.26
-1.26
-1.10
-0.76
-0.28
0.26
0.71
0.92
0.80
0.42
-0.10
-0.54
-0.76
-0.72
-0.48
-0.21
-0.04
-0.02
-0.12
-0.25
-0.39
-0.52
-0.70
-0.96
-1.26
-1.51
-1.60
-1.42
-1.01
-0.46
0.08
0.47
0.65
0.61
0.41
0.13
-0.11
-0.23
-0.16
0.07
0.39
0.70
0.93
1.03
1.04
1.00
0.91
0.74
0.47
0.08
-0.34
-0.65
-0.75
-0.62
-0.35
-0.08
0.07
0.07
-0.02
-0.08
-0.03
0.17
0.46
0.73
0.88
0.82
0.56
0.19
-0.14
-0.28
-0.18
0.11
0.42
0.56
0.44
0.07
-0.40
-0.79
-0.98
-0.92
-0.68
-0.36
-0.07
0.13
0.23
0.23
0.17
0.07
-0.02
-0.08
-0.07
0.04
0.22
0.45
0.63
0.69
0.58
0.33
0.02
-0.24
-0.38
-0.42
-0.42
-0.48
-0.61
-0.78
-0.87
-0.79
-0.51
-0.10
0.30
0.56
0.63
0.54
0.39
0.27
0.22
0.21
0.22
0.20
0.17
0.15
0.15
0.16
0.17
0.17
0.19
0.27
0.43
0.65
0.86
0.95
0.85
0.55
0.14
-0.25
-0.49
-0.53
-0.37
-0.15
0.00
-0.02
-0.23
-0.57
-0.89
-1.07
-1.06
-0.86
-0.54
-0.18
0.17
0.50
0.80
1.05
1.20
1.17
0.95
0.60
0.23
-0.02
-0.08
0.02
0.19
0.33
0.41
0.45
0.52
0.66
0.83
0.94
0.90
0.68
0.33
-0.04
-0.31
-0.44
-0.43
-0.38
-0.38
-0.47
-0.64
-0.81
-0.89
-0.83
-0.64
-0.38
-0.18
-0.09
-0.13
-0.24
-0.33
-0.35
-0.26
-0.13
-0.02
0.01
-0.06
-0.18
-0.30
-0.36
-0.33
-0.25
-0.15
-0.07
-0.01
0.05
0.16
0.28
0.36
0.35
0.25
0.12
0.05
0.08
0.18
0.26
0.21
0.02
-0.23
-0.42
-0.43
-0.27
-0.06
0.06
0.01
-0.19
-0.42
-0.56
-0.54
-0.36
-0.10
0.19
0.44
0.62
0.71
0.70
0.60
0.45
0.31
0.23
0.25
0.34
0.44
0.48
0.43
0.28
0.10
-0.07
-0.18
-0.25
-0.31
-0.40
-0.53
-0.69
-0.84
-0.94
-0.99
-1.00
-0.95
-0.84
-0.64
-0.34
0.04
0.41
0.67
0.74
0.61
0.32
-0.01
-0.28
-0.39
-0.32
-0.15
0.05
0.20
0.30
0.35
0.39
0.43
0.44
0.39
0.26
0.13
0.08
0.19
0.47
0.82
1.10
1.18
1.01
0.61
0.11
-0.35
-0.65
-0.71
-0.53
-0.20
0.18
0.45
0.52
0.37
0.05
-0.34
-0.65
-0.81
-0.79
-0.63
-0.41
-0.22
-0.15
-0.21
-0.41
-0.69
-0.98
-1.18
-1.23
-1.08
-0.77
-0.37
-0.01
0.21
0.24
0.11
-0.09
-0.25
-0.30
-0.19
0.03
0.31
0.57
0.76
0.87
0.91
0.91
0.85
0.76
0.65
0.58
0.57
0.63
0.67
0.61
0.37
-0.02
-0.47
-0.79
-0.90
-0.77
-0.52
-0.28
-0.17
-0.18
-0.28
-0.38
-0.48
-0.58
-0.70
-0.83
-0.88
-0.78
-0.52
-0.15
0.20
0.41
0.43
0.30
0.13
0.04
0.08
0.24
0.41
0.49
0.39
0.12
-0.23
-0.53
-0.66
-0.59
-0.36
-0.07
0.18
0.31
0.30
0.18
-0.01
-0.19
-0.31
-0.33
-0.22
-0.01
0.24
0.47
0.61
0.63
0.55
0.41
0.27
0.20
0.21
0.31
0.44
0.52
0.45
0.24
-0.07
-0.35
-0.51
-0.50
-0.35
-0.11
0.14
0.38
0.58
0.72
0.74
0.63
0.41
0.12
-0.14
-0.28
-0.30
-0.22
-0.12
-0.06
-0.04
-0.06
-0.09
-0.14
-0.19
-0.22
-0.19
-0.09
0.11
0.36
0.61
0.77
0.77
0.58
0.19
-0.31
-0.82
-1.19
-1.32
-1.18
-0.86
-0.47
-0.17
-0.00
0.07
0.09
0.11
0.11
0.02
-0.17
-0.41
-0.58
-0.60
-0.41
-0.08
0.26
0.50
0.57
0.50
0.36
0.24
0.18
0.19
0.23
0.22
0.13
-0.04
-0.25
-0.39
-0.38
-0.19
0.13
0.45
0.65
0.66
0.50
0.30
0.17
0.21
0.40
0.64
0.82
0.85
0.72
0.48
0.23
0.05
-0.01
0.03
0.11
0.17
0.16
0.10
-0.01
-0.12
-0.23
-0.33
-0.42
-0.51
-0.57
-0.57
-0.49
-0.35
-0.21
-0.14
-0.18
-0.32
-0.49
-0.60
-0.57
-0.41
-0.16
0.08
0.23
0.23
0.10
-0.10
-0.29
-0.40
-0.35
-0.17
0.10
0.38
0.56
0.62
0.56
0.45
0.37
0.37
0.44
0.54
0.61
0.60
0.52
0.39
0.25
0.12
0.02
-0.08
-0.17
-0.26
-0.36
-0.44
-0.48
-0.49
-0.47
-0.46
-0.48
-0.50
-0.51
-0.45
-0.35
-0.24
-0.16
-0.11
-0.04
0.10
0.33
0.57
0.71
0.67
0.47
0.21
0.02
-0.04
-0.05
-0.10
-0.26
-0.48
-0.63
-0.57
-0.27
0.16
0.55
0.72
0.62
0.29
-0.17
-0.64
-1.05
-1.34
-1.47
-1.42
-1.16
-0.72
-0.20
0.30
0.66
0.83
0.80
0.64
0.44
0.31
0.31
0.42
0.58
0.68
0.62
0.39
0.01
-0.40
-0.72
-0.84
-0.76
-0.51
-0.17
0.15
0.39
0.53
0.56
0.49
0.35
0.17
-0.03
-0.22
-0.39
-0.51
-0.59
-0.60
-0.53
-0.38
-0.17
0.06
0.28
0.46
0.56
0.57
0.51
0.42
0.32
0.25
0.25
0.28
0.29
0.24
0.08
-0.16
-0.41
-0.58
-0.60
-0.45
-0.19
0.12
0.36
0.47
0.43
0.25
-0.01
-0.29
-0.53
-0.71
-0.85
-0.95
-0.99
-0.92
-0.72
-0.41
-0.08
0.19
0.34
0.41
0.47
0.61
0.80
0.98
1.03
0.88
0.55
0.15
-0.20
-0.39
-0.40
-0.29
-0.14
-0.03
0.02
0.03
0.04
0.08
0.15
0.23
0.28
0.28
0.25
0.20
0.15
0.11
0.06
-0.02
-0.12
-0.20
-0.21
-0.15
-0.03
0.11
0.26
0.41
0.59
0.81
1.02
1.15
1.13
0.94
0.61
0.25
-0.07
-0.31
-0.48
-0.62
-0.75
-0.83
-0.83
-0.75
-0.58
-0.38
-0.19
-0.03
0.09
0.17
0.20
0.14
-0.02
-0.27
-0.53
-0.69
-0.66
-0.39
0.03
0.47
0.75
0.75
0.45
0.01
-0.40
-0.61
-0.59
-0.42
-0.24
-0.13
-0.09
-0.03
0.13
0.39
0.65
0.76
0.67
0.42
0.12
-0.09
-0.17
-0.14
-0.09
-0.05
-0.01
0.07
0.20
0.33
0.35
0.18
-0.19
-0.67
-1.07
-1.21
-0.99
-0.45
0.22
0.80
1.08
0.98
0.55
-0.04
-0.60
-0.96
-1.07
-0.95
-0.70
-0.42
-0.15
0.05
0.19
0.26
0.23
0.13
-0.01
-0.12
-0.13
0.00
0.26
0.56
0.82
0.97
0.98
0.88
0.70
0.48
0.26
0.10
0.03
0.06
0.16
0.25
0.28
0.20
0.06
-0.07
-0.10
-0.03
0.07
0.09
-0.05
-0.37
-0.79
-1.19
-1.47
-1.58
-1.54
-1.37
-1.10
-0.71
-0.24
0.26
0.67
0.85
0.75
0.44
0.08
-0.17
-0.19
0.01
0.31
0.57
0.71
0.70
0.58
0.43
0.32
0.28
0.32
0.40
0.50
0.56
0.55
0.45
0.28
0.08
-0.08
-0.16
-0.14
-0.05
0.04
0.06
-0.01
-0.14
-0.25
-0.26
-0.13
0.07
0.23
0.25
0.06
-0.27
-0.67
-1.01
-1.21
-1.24
-1.11
-0.89
-0.62
-0.36
-0.15
-0.00
0.09
0.14
0.16
0.19
0.26
0.38
0.56
0.78
0.96
1.04
0.98
0.84
0.69
0.59
0.55
0.55
0.53
0.49
0.42
0.34
0.25
0.11
-0.08
-0.31
-0.51
-0.60
-0.55
-0.39
-0.17
0.00
0.07
-0.03
-0.27
-0.59
-0.91
-1.13
-1.19
-1.09
-0.89
-0.67
-0.49
-0.36
-0.22
-0.04
0.18
0.40
0.54
0.55
0.42
0.22
0.06
0.00
0.07
0.19
0.26
0.18
-0.05
-0.37
-0.63
-0.72
-0.63
-0.41
-0.19
-0.07
-0.07
-0.16
-0.24
-0.26
-0.22
-0.17
-0.15
-0.17
-0.19
-0.15
0.02
0.30
0.59
0.77
0.78
0.61
0.35
0.13
0.02
0.03
0.10
0.15
0.14
0.13
0.17
0.33
0.58
0.83
0.98
0.95
0.76
0.50
0.23
-0.02
-0.25
-0.48
-0.65
-0.69
-0.55
-0.23
0.15
0.43
0.51
0.43
0.30
0.26
0.40
0.64
0.85
0.87
0.65
0.27
-0.14
-0.43
-0.56
-0.56
-0.53
-0.56
-0.66
-0.77
-0.79
-0.68
-0.44
-0.19
-0.04
-0.08
-0.29
-0.58
-0.86
-1.06
-1.18
-1.24
-1.19
-1.00
-0.61
-0.04
0.60
1.15
1.44
1.46
1.26
1.01
0.84
0.78
0.80
0.81
0.74
0.55
0.25
-0.12
-0.48
-0.76
-0.93
-0.95
-0.81
-0.53
-0.18
0.20
0.54
0.80
0.92
0.87
0.64
0.28
-0.13
-0.47
-0.68
-0.73
-0.69
-0.63
-0.61
-0.62
-0.62
-0.53
-0.35
-0.09
0.18
0.38
0.48
0.49
0.45
0.40
0.36
0.35
0.36
0.38
0.39
0.39
0.38
0.35
0.28
0.15
-0.03
-0.24
-0.45
-0.60
-0.67
-0.63
-0.51
-0.33
-0.13
0.05
0.19
0.30
0.37
0.40
0.42
0.44
0.44
0.39
0.26
0.08
-0.12
-0.25
-0.23
-0.07
0.17
0.37
0.46
0.40
0.23
0.02
-0.15
-0.25
-0.25
-0.15
0.03
0.28
0.51
0.64
0.57
0.28
-0.16
-0.59
-0.85
-0.87
-0.68
-0.39
-0.15
-0.04
-0.07
-0.21
-0.43
-0.68
-0.94
-1.16
-1.26
-1.14
-0.79
-0.29
0.23
0.62
0.79
0.75
0.58
0.37
0.15
-0.06
-0.23
-0.32
-0.26
-0.04
0.29
0.60
0.74
0.66
0.41
0.12
-0.05
-0.04
0.13
0.38
0.59
0.64
0.49
0.12
-0.39
-0.87
-1.15
-1.08
-0.67
-0.08
0.42
0.62
0.49
0.14
-0.19
-0.32
-0.19
0.08
0.35
0.50
0.53
0.50
0.49
0.52
0.59
0.67
0.74
0.80
0.86
0.90
0.88
0.80
0.64
0.44
0.24
0.07
-0.08
-0.22
-0.35
-0.45
-0.50
-0.47
-0.41
-0.38
-0.43
-0.59
-0.79
-0.95
-0.99
-0.92
-0.80
-0.70
-0.67
-0.66
-0.61
-0.44
-0.20
0.01
0.07
-0.08
-0.39
-0.72
-0.94
-0.95
-0.76
-0.44
-0.10
0.20
0.44
0.59
0.65
0.63
0.54
0.43
0.35
0.37
0.49
0.65
0.78
0.80
0.67
0.41
0.08
-0.26
-0.50
-0.59
-0.49
-0.20
0.18
0.55
0.79
0.83
0.69
0.42
0.09
-0.24
-0.54
-0.79
-0.93
-0.92
-0.77
-0.54
-0.33
-0.24
-0.28
-0.40
-0.52
-0.59
-0.59
-0.51
-0.34
-0.03
0.41
0.86
1.18
1.19
0.86
0.31
-0.22
-0.48
-0.40
-0.05
0.37
0.66
0.77
0.75
0.75
0.84
1.02
1.19
1.22
1.05
0.70
0.24
-0.20
-0.53
-0.69
-0.70
-0.64
-0.59
-0.65
-0.84
-1.13
-1.45
-1.69
-1.78
-1.68
-1.42
-1.06
-0.67
-0.28
0.05
0.31
0.45
0.47
0.41
0.32
0.30
0.39
0.58
0.78
0.89
0.84
0.65
0.39
0.20
0.15
0.27
0.47
0.63
0.64
0.48
0.20
-0.08
-0.27
-0.34
-0.32
-0.32
-0.41
-0.64
-0.96
-1.28
-1.48
-1.51
-1.41
-1.25
-1.12
-1.02
-0.90
-0.66
-0.27
0.25
0.75
1.12
1.27
1.18
0.93
0.59
0.24
-0.07
-0.26
-0.28
-0.07
0.34
0.88
1.37
1.66
1.68
1.46
1.11
0.77
0.56
0.50
0.55
0.63
0.67
0.64
0.55
0.45
0.35
0.26
0.17
0.06
-0.06
-0.16
-0.22
-0.21
-0.14
-0.04
0.05
0.07
0.02
-0.08
-0.20
-0.30
-0.35
-0.33
-0.28
-0.23
-0.19
-0.18
-0.18
-0.18
-0.16
-0.13
-0.12
-0.14
-0.15
-0.11
0.05
0.32
0.62
0.86
0.95
0.86
0.65
0.44
0.30
0.26
0.25
0.20
0.04
-0.20
-0.50
-0.76
-0.94
-0.98
-0.87
-0.63
-0.32
-0.02
0.15
0.15
-0.03
-0.30
-0.57
-0.75
-0.84
-0.85
-0.81
-0.70
-0.52
-0.28
-0.02
0.17
0.22
0.11
-0.10
-0.30
-0.41
-0.37
-0.18
0.09
0.38
0.60
0.69
0.60
0.35
-0.01
-0.36
-0.55
-0.49
-0.19
0.22
0.57
0.70
0.58
0.32
0.08
-0.04
-0.00
0.09
0.11
0.03
-0.15
-0.34
-0.46
-0.47
-0.42
-0.34
-0.26
-0.18
-0.07
0.06
0.20
0.31
0.36
0.32
0.20
0.03
-0.13
-0.23
-0.20
-0.03
0.25
0.57
0.83
0.97
0.98
0.91
0.82
0.74
0.70
0.66
0.56
0.40
0.17
-0.07
-0.30
-0.47
-0.60
-0.70
-0.78
-0.82
-0.78
-0.61
-0.33
-0.02
0.20
0.24
0.08
-0.22
-0.52
-0.71
-0.73
-0.59
-0.35
-0.09
0.14
0.33
0.47
0.56
0.56
0.45
0.23
-0.06
-0.36
-0.59
-0.68
-0.62
-0.45
-0.22
-0.03
0.11
0.19
0.23
0.27
0.33
0.41
0.48
0.53
0.55
0.52
0.45
0.32
0.16
-0.01
-0.16
-0.29
-0.40
-0.51
-0.60
-0.62
-0.51
-0.24
0.13
0.48
0.69
0.66
0.40
0.03
-0.30
-0.49
-0.50
-0.38
-0.21
-0.07
-0.02
-0.06
-0.18
-0.35
-0.52
-0.65
-0.71
-0.70
-0.62
-0.50
-0.34
-0.16
0.01
0.15
0.23
0.22
0.11
-0.04
-0.16
-0.19
-0.12
0.02
0.16
0.29
0.37
0.47
0.59
0.76
0.91
0.99
0.96
0.81
0.55
0.25
-0.03
-0.24
-0.34
-0.34
-0.24
-0.09
0.07
0.20
0.26
0.23
0.13
-0.02
-0.15
-0.18
-0.07
0.19
0.51
0.76
0.83
0.67
0.36
0.02
-0.23
-0.35
-0.35
-0.32
-0.33
-0.40
-0.51
-0.62
-0.65
-0.59
-0.43
-0.21
0.02
0.18
0.24
0.19
0.06
-0.10
-0.22
-0.23
-0.11
0.13
0.44
0.69
0.79
0.66
0.35
-0.06
-0.43
-0.67
-0.75
-0.71
-0.62
-0.52
-0.41
-0.30
-0.22
-0.20
-0.26
-0.36
-0.41
-0.35
-0.16
0.05
0.19
0.15
-0.05
-0.35
-0.62
-0.77
-0.75
-0.58
-0.34
-0.07
0.15
0.29
0.29
0.16
-0.09
-0.38
-0.62
-0.70
-0.56
-0.22
0.28
0.81
1.25
1.51
1.56
1.43
1.21
0.96
0.76
0.64
0.55
0.46
0.31
0.11
-0.09
-0.22
-0.24
-0.16
-0.05
0.02
0.02
-0.03
-0.08
-0.09
-0.06
-0.01
-0.01
-0.05
-0.12
-0.16
-0.13
-0.04
0.07
0.16
0.19
0.16
0.09
0.03
0.01
0.02
0.03
0.00
-0.09
-0.23
-0.37
-0.46
-0.45
-0.38
-0.28
-0.22
-0.21
-0.26
-0.31
-0.30
-0.18
0.05
0.34
0.59
0.68
0.57
0.25
-0.16
-0.54
-0.79
-0.87
-0.78
-0.57
-0.30
-0.02
0.23
0.40
0.46
0.43
0.34
0.25
0.18
0.13
0.04
-0.12
-0.31
-0.47
-0.52
-0.41
-0.19
0.05
0.22
0.29
0.30
0.32
0.40
0.52
0.61
0.60
0.45
0.21
-0.02
-0.15
-0.13
0.01
0.20
0.37
0.46
0.48
0.43
0.36
0.28
0.20
0.12
0.07
0.03
0.02
0.01
-0.02
-0.07
-0.11
-0.15
-0.19
-0.25
-0.36
-0.50
-0.63
-0.68
-0.61
-0.43
-0.22
-0.08
-0.09
-0.25
-0.48
-0.69
-0.77
-0.68
-0.46
-0.21
-0.02
0.03
-0.07
-0.23
-0.34
-0.34
-0.21
-0.03
0.09
0.11
0.05
-0.00
0.06
0.23
0.43
0.54
0.51
0.36
0.22
0.19
0.31
0.50
0.67
0.72
0.67
0.58
0.52
0.51
0.52
0.48
0.36
0.17
-0.02
-0.16
-0.25
-0.30
-0.34
-0.38
-0.36
-0.23
0.02
0.34
0.60
0.67
0.50
0.13
-0.31
-0.67
-0.80
-0.67
-0.31
0.12
0.48
0.63
0.53
0.26
-0.08
-0.33
-0.39
-0.28
-0.08
0.07
0.07
-0.09
-0.34
-0.56
-0.65
-0.61
-0.46
-0.30
-0.16
-0.07
-0.04
-0.03
-0.07
-0.15
-0.26
-0.36
-0.43
-0.42
-0.34
-0.21
-0.10
-0.05
-0.08
-0.17
-0.23
-0.21
-0.07
0.17
0.44
0.65
0.75
0.75
0.67
0.57
0.46
0.38
0.32
0.28
0.30
0.39
0.53
0.68
0.79
0.81
0.72
0.53
0.28
0.04
-0.13
-0.18
-0.11
0.01
0.09
0.06
-0.11
-0.33
-0.48
-0.51
-0.41
-0.30
-0.29
-0.43
-0.69
-0.95
-1.11
-1.10
-0.95
-0.72
-0.49
-0.32
-0.23
-0.19
-0.16
-0.09
0.03
0.20
0.34
0.38
0.28
0.06
-0.17
-0.32
-0.32
-0.21
-0.08
-0.03
-0.12
-0.28
-0.42
-0.41
-0.22
0.11
0.45
0.68
0.72
0.61
0.45
0.36
0.41
0.57
0.78
0.92
0.94
0.82
0.59
0.33
0.13
0.05
0.13
0.34
0.57
0.73
0.74
0.60
0.36
0.13
-0.03
-0.12
-0.15
-0.17
-0.18
-0.19
-0.16
-0.12
-0.10
-0.16
-0.33
-0.60
-0.89
-1.13
-1.25
-1.22
-1.04
-0.76
-0.44
-0.15
0.04
0.08
-0.06
-0.33
-0.66
-0.92
-0.99
-0.82
-0.47
-0.06
0.27
0.43
0.42
0.31
0.18
0.09
0.03
-0.04
-0.12
-0.18
-0.17
-0.04
0.21
0.48
0.66
0.65
0.45
0.14
-0.14
-0.26
-0.22
-0.07
0.08
0.15
0.18
0.25
0.45
0.78
1.10
1.21
0.98
0.43
-0.24
-0.76
-0.94
-0.74
-0.32
0.10
0.34
0.36
0.24
0.10
0.02
-0.01
-0.05
-0.16
-0.35
-0.55
-0.69
-0.70
-0.59
-0.40
-0.22
-0.14
-0.17
-0.28
-0.37
-0.38
-0.28
-0.11
0.05
0.16
0.22
0.29
0.43
0.66
0.91
1.07
1.05
0.85
0.54
0.22
0.01
-0.09
-0.13
-0.14
-0.17
-0.20
-0.15
0.01
0.25
0.49
0.61
0.54
0.28
-0.07
-0.36
-0.50
-0.44
-0.26
-0.05
0.09
0.14
0.13
0.12
0.13
0.17
0.23
0.25
0.24
0.21
0.18
0.16
0.16
0.17
0.18
0.17
0.12
0.04
-0.07
-0.16
-0.19
-0.15
-0.07
-0.01
-0.05
-0.20
-0.41
-0.59
-0.65
-0.59
-0.47
-0.38
-0.38
-0.48
-0.60
-0.66
-0.62
-0.52
-0.39
-0.24
-0.04
0.25
0.63
1.01
1.27
1.31
1.12
0.81
0.50
0.31
0.21
0.13
-0.01
-0.23
-0.47
-0.61
-0.58
-0.39
-0.10
0.17
0.35
0.38
0.29
0.10
-0.12
-0.28
-0.32
-0.20
0.04
0.30
0.46
0.40
0.10
-0.35
-0.81
-1.10
-1.13
-0.89
-0.48
-0.06
0.26
0.41
0.45
0.48
0.59
0.76
0.90
0.87
0.60
0.16
-0.29
-0.58
-0.63
-0.48
-0.27
-0.12
-0.08
-0.11
-0.14
-0.16
-0.26
-0.52
-0.98
-1.54
-2.02
-2.24
-2.15
-1.86
-1.55
-1.37
-1.31
-1.24
-0.99
-0.46
0.27
1.02
1.57
1.80
1.75
1.57
1.44
1.47
1.64
1.83
1.93
1.86
1.64
1.39
1.18
1.09
1.06
1.00
0.84
0.55
0.16
-0.23
-0.51
-0.65
-0.67
-0.64
-0.67
-0.80
-1.03
-1.29
-1.52
-1.68
-1.82
-1.95
-2.09
-2.13
-2.01
-1.69
-1.24
-0.86
-0.68
-0.77
-0.99
-1.12
-0.94
-0.39
0.38
1.15
1.65
1.77
1.55
1.16
0.83
0.69
0.77
0.98
1.16
1.19
1.03
0.77
0.51
0.36
0.36
0.48
0.64
0.77
0.83
0.82
0.76
0.66
0.57
0.50
0.46
0.43
0.38
0.28
0.14
-0.05
-0.24
-0.42
-0.58
-0.73
-0.85
-0.94
-0.96
-0.91
-0.78
-0.57
-0.31
-0.01
0.29
0.53
0.65
0.62
0.45
0.20
-0.05
-0.24
-0.31
-0.24
-0.06
0.16
0.36
0.44
0.38
0.20
-0.05
-0.29
-0.47
-0.54
-0.47
-0.26
0.11
0.58
1.01
1.26
1.23
0.93
0.50
0.12
-0.07
-0.04
0.14
0.37
0.53
0.59
0.54
0.40
0.20
-0.02
-0.23
-0.39
-0.48
-0.49
-0.44
-0.38
-0.32
-0.28
-0.27
-0.29
-0.32
-0.32
-0.26
-0.10
0.12
0.34
0.48
0.50
0.43
0.34
0.32
0.36
0.43
0.47
0.42
0.31
0.18
0.04
-0.09
-0.23
-0.38
-0.50
-0.54
-0.49
-0.36
-0.24
-0.17
-0.19
-0.24
-0.27
-0.25
-0.19
-0.12
-0.09
-0.11
-0.18
-0.25
-0.29
-0.25
-0.12
0.07
0.25
0.35
0.34
0.25
0.18
0.21
0.33
0.46
0.45
0.25
-0.09
-0.42
-0.57
-0.48
-0.20
0.10
0.25
0.22
0.05
-0.12
-0.20
-0.19
-0.14
-0.09
-0.07
-0.07
-0.07
-0.08
-0.14
-0.30
-0.59
-0.94
-1.25
-1.39
-1.29
-0.95
-0.47
0.01
0.38
0.64
0.81
0.97
1.13
1.24
1.24
1.07
0.74
0.32
-0.09
-0.35
-0.42
-0.29
-0.03
0.23
0.38
0.32
0.04
-0.38
-0.80
-1.08
-1.12
-0.91
-0.54
-0.14
0.17
0.34
0.36
0.31
0.23
0.18
0.17
0.17
0.15
0.09
0.01
-0.04
-0.03
0.07
0.24
0.45
0.66
0.84
0.96
0.95
0.78
0.43
-0.06
-0.56
-0.94
-1.09
-1.00
-0.72
-0.39
-0.12
0.02
0.02
-0.08
-0.19
-0.28
-0.31
-0.28
-0.20
-0.06
0.10
0.28
0.44
0.54
0.56
0.47
0.28
0.05
-0.16
-0.27
-0.26
-0.15
-0.02
0.04
-0.02
-0.20
-0.43
-0.61
-0.69
-0.62
-0.42
-0.14
0.12
0.28
0.26
0.05
-0.30
-0.62
-0.78
-0.66
-0.30
0.17
0.56
0.72
0.63
0.38
0.13
0.00
0.03
0.15
0.27
0.32
0.29
0.25
0.24
0.24
0.22
0.13
-0.02
-0.20
-0.36
-0.48
-0.56
-0.66
-0.80
-0.91
-0.93
-0.75
-0.40
0.04
0.40
0.54
0.43
0.17
-0.11
-0.26
-0.24
-0.07
0.14
0.34
0.48
0.60
0.74
0.87
0.96
0.94
0.78
0.49
0.19
-0.05
-0.16
-0.17
-0.12
-0.11
-0.16
-0.24
-0.32
-0.34
-0.28
-0.18
-0.08
-0.01
0.01
0.01
-0.01
-0.01
-0.00
0.02
0.02
-0.01
-0.06
-0.13
-0.19
-0.20
-0.15
-0.02
0.17
0.40
0.63
0.80
0.85
0.76
0.51
0.17
-0.16
-0.37
-0.41
-0.32
-0.16
-0.01
0.12
0.26
0.44
0.63
0.76
0.75
0.58
0.32
0.09
-0.00
0.04
0.12
0.07
-0.16
-0.50
-0.81
-0.94
-0.83
-0.58
-0.32
-0.16
-0.11
-0.10
-0.09
-0.07
-0.13
-0.31
-0.61
-0.89
-1.03
-0.91
-0.60
-0.23
0.01
0.04
-0.14
-0.39
-0.60
-0.68
-0.62
-0.46
-0.22
0.04
0.31
0.57
0.77
0.86
0.84
0.74
0.60
0.50
0.44
0.41
0.36
0.26
0.12
-0.04
-0.21
-0.35
-0.46
-0.49
-0.41
-0.17
0.22
0.67
1.06
1.25
1.22
0.99
0.70
0.42
0.19
-0.00
-0.18
-0.32
-0.37
-0.27
-0.05
0.21
0.38
0.38
0.18
-0.12
-0.39
-0.55
-0.55
-0.42
-0.22
-0.04
0.07
0.10
0.07
0.00
-0.09
-0.21
-0.33
-0.46
-0.57
-0.63
-0.62
-0.57
-0.55
-0.63
-0.81
-1.03
-1.17
-1.12
-0.83
-0.37
0.10
0.43
0.57
0.52
0.39
0.29
0.25
0.28
0.29
0.25
0.18
0.14
0.21
0.39
0.63
0.84
0.96
0.96
0.90
0.84
0.79
0.75
0.69
0.61
0.54
0.50
0.49
0.44
0.25
-0.12
-0.61
-1.09
-1.37
-1.37
-1.12
-0.78
-0.49
-0.33
-0.30
-0.30
-0.30
-0.32
-0.42
-0.65
-0.94
-1.15
-1.16
-0.91
-0.47
-0.03
0.27
0.36
0.31
0.20
0.13
0.16
0.28
0.43
0.58
0.67
0.67
0.56
0.37
0.16
0.02
-0.01
0.07
0.21
0.33
0.34
0.23
0.02
-0.24
-0.50
-0.68
-0.75
-0.65
-0.37
0.07
0.57
0.99
1.20
1.14
0.87
0.51
0.23
0.13
0.22
0.40
0.58
0.72
0.80
0.85
0.90
0.93
0.90
0.78
0.57
0.28
-0.04
-0.34
-0.58
-0.74
-0.81
-0.79
-0.74
-0.69
-0.64
-0.60
-0.55
-0.49
-0.48
-0.55
-0.68
-0.81
-0.82
-0.64
-0.30
0.08
0.33
0.33
0.09
-0.27
-0.60
-0.76
-0.71
-0.48
-0.17
0.12
0.33
0.40
0.35
0.21
0.09
0.06
0.16
0.35
0.51
0.52
0.34
0.05
-0.25
-0.43
-0.45
-0.36
-0.26
-0.21
-0.23
-0.28
-0.31
-0.28
-0.17
0.01
0.22
0.44
0.61
0.71
0.72
0.65
0.53
0.39
0.24
0.10
-0.02
-0.08
-0.04
0.11
0.33
0.52
0.59
0.53
0.37
0.21
0.11
0.09
0.09
0.07
0.00
-0.11
-0.24
-0.40
-0.59
-0.85
-1.12
-1.27
-1.16
-0.71
0.02
0.84
1.48
1.74
1.55
1.04
0.45
-0.03
-0.27
-0.28
-0.15
0.00
0.13
0.20
0.23
0.22
0.16
0.05
-0.08
-0.19
-0.24
-0.23
-0.17
-0.11
-0.10
-0.16
-0.25
-0.32
-0.34
-0.26
-0.13
0.02
0.10
0.03
-0.21
-0.57
-0.96
-1.23
-1.30
-1.16
-0.87
-0.52
-0.19
0.08
0.30
0.44
0.49
0.42
0.23
-0.03
-0.29
-0.45
-0.48
-0.39
-0.23
-0.05
0.10
0.20
0.27
0.33
0.40
0.48
0.54
0.57
0.52
0.40
0.26
0.13
0.05
0.03
0.06
0.10
0.13
0.15
0.18
0.26
0.41
0.63
0.86
1.02
1.03
0.86
0.55
0.18
-0.13
-0.35
-0.47
-0.55
-0.62
-0.67
-0.64
-0.50
-0.25
0.02
0.24
0.34
0.34
0.28
0.25
0.25
0.25
0.19
0.03
-0.21
-0.48
-0.69
-0.76
-0.67
-0.44
-0.16
0.08
0.20
0.19
0.08
-0.04
-0.09
-0.02
0.15
0.32
0.41
0.34
0.10
-0.23
-0.55
-0.79
-0.92
-0.97
-0.95
-0.87
-0.69
-0.40
-0.01
0.37
0.62
0.64
0.41
0.03
-0.38
-0.66
-0.75
-0.66
-0.42
-0.09
0.25
0.56
0.77
0.86
0.82
0.72
0.61
0.51
0.40
0.24
0.02
-0.20
-0.34
-0.31
-0.10
0.20
0.46
0.56
0.49
0.30
0.11
-0.02
-0.11
-0.20
-0.33
-0.49
-0.62
-0.64
-0.48
-0.18
0.18
0.48
0.64
0.63
0.50
0.34
0.20
0.11
0.07
0.04
-0.01
-0.07
-0.14
-0.17
-0.16
-0.09
0.03
0.15
0.24
0.24
0.14
-0.05
-0.27
-0.46
-0.57
-0.59
-0.59
-0.58
-0.58
-0.53
-0.34
0.01
0.44
0.83
1.03
0.97
0.71
0.36
0.08
-0.08
-0.13
-0.16
-0.22
-0.32
-0.42
-0.45
-0.37
-0.18
0.07
0.31
0.47
0.50
0.41
0.24
0.10
0.09
0.26
0.57
0.90
1.11
1.09
0.83
0.42
-0.01
-0.33
-0.52
-0.58
-0.57
-0.51
-0.45
-0.38
-0.33
-0.31
-0.36
-0.46
-0.60
-0.74
-0.81
-0.79
-0.66
-0.42
-0.18
-0.02
-0.03
-0.22
-0.53
-0.80
-0.91
-0.79
-0.48
-0.09
0.22
0.39
0.42
0.36
0.30
0.27
0.28
0.33
0.41
0.53
0.69
0.85
0.99
1.06
1.02
0.88
0.68
0.45
0.25
0.09
-0.01
-0.07
-0.12
-0.18
-0.25
-0.32
-0.34
-0.33
-0.28
-0.25
-0.24
-0.27
-0.30
-0.30
-0.30
-0.33
-0.43
-0.62
-0.84
-0.99
-0.97
-0.79
-0.52
-0.26
-0.11
-0.04
0.00
0.10
0.27
0.44
0.50
0.38
0.11
-0.19
-0.39
-0.41
-0.27
-0.05
0.14
0.27
0.36
0.47
0.61
0.77
0.88
0.90
0.83
0.70
0.57
0.46
0.34
0.20
0.04
-0.12
-0.22
-0.23
-0.15
-0.03
0.06
0.08
0.01
-0.11
-0.23
-0.29
-0.26
-0.15
0.01
0.16
0.27
0.32
0.30
0.24
0.15
0.03
-0.12
-0.29
-0.43
-0.49
-0.43
-0.26
-0.05
0.08
0.05
-0.15
-0.46
-0.73
-0.84
-0.73
-0.42
0.01
0.43
0.75
0.90
0.88
0.72
0.47
0.23
0.05
-0.04
-0.04
0.00
0.04
0.07
0.10
0.16
0.25
0.33
0.35
0.29
0.19
0.12
0.13
0.21
0.29
0.25
0.05
-0.29
-0.68
-0.98
-1.09
-0.97
-0.64
-0.21
0.23
0.55
0.71
0.69
0.52
0.28
0.02
-0.19
-0.31
-0.36
-0.34
-0.30
-0.27
-0.29
-0.36
-0.44
-0.51
-0.54
-0.48
-0.35
-0.14
0.13
0.45
0.76
1.01
1.15
1.16
1.05
0.86
0.63
0.37
0.11
-0.14
-0.30
-0.32
-0.21
-0.03
0.09
0.02
-0.26
-0.69
-1.12
-1.39
-1.44
-1.28
-1.01
-0.78
-0.65
-0.64
-0.71
-0.79
-0.81
-0.73
-0.53
-0.24
0.08
0.38
0.59
0.71
0.72
0.67
0.59
0.54
0.51
0.47
0.41
0.28
0.09
-0.09
-0.20
-0.19
-0.06
0.16
0.36
0.52
0.60
0.62
0.64
0.66
0.67
0.65
0.62
0.58
0.56
0.58
0.64
0.71
0.77
0.80
0.79
0.71
0.55
0.29
-0.06
-0.45
-0.82
-1.11
-1.26
-1.24
-1.08
-0.82
-0.55
-0.39
-0.41
-0.61
-0.92
-1.17
-1.23
-1.02
-0.61
-0.13
0.27
0.53
0.64
0.68
0.71
0.72
0.67
0.54
0.34
0.14
0.01
-0.00
0.06
0.11
0.10
0.00
-0.14
-0.27
-0.37
-0.47
-0.60
-0.77
-0.92
-0.98
-0.88
-0.62
-0.28
0.02
0.20
0.22
0.10
-0.05
-0.16
-0.18
-0.12
-0.05
-0.05
-0.16
-0.34
-0.53
-0.60
-0.51
-0.26
0.06
0.35
0.54
0.60
0.57
0.52
0.50
0.52
0.59
0.70
0.82
0.94
1.02
1.03
0.96
0.82
0.63
0.43
0.24
0.10
-0.00
-0.05
-0.05
-0.05
-0.08
-0.18
-0.35
-0.51
-0.61
-0.59
-0.45
-0.24
-0.06
0.03
0.01
-0.09
-0.21
-0.32
-0.42
-0.50
-0.54
-0.52
-0.42
-0.25
-0.07
0.06
0.09
0.02
-0.08
-0.13
-0.09
0.04
0.20
0.34
0.44
0.46
0.41
0.32
0.22
0.18
0.24
0.44
0.74
1.05
1.24
1.24
1.03
0.70
0.36
0.10
-0.02
-0.04
-0.00
0.01
-0.03
-0.15
-0.31
