1636867283.00
64.000000
-0.00
-0.00
-0.00
-0.00
-0.00
-0.00
-0.00
-0.00
-0.00
-0.00
0.00
0.01
0.01
-0.00
-0.03
-0.05
-0.05
0.00
0.13
0.36
0.66
1.01
1.38
1.72
2.05
2.39
2.78
3.24
3.83
4.48
5.15
5.75
6.23
6.60
6.93
7.32
7.86
8.68
9.71
10.81
11.84
12.69
13.41
14.16
15.20
16.73
18.99
21.79
24.81
27.67
30.14
32.27
34.41
37.11
40.82
46.01
52.29
59.02
65.41
70.92
75.56
79.93
85.00
91.63
100.55
111.26
122.68
133.50
142.76
150.33
157.05
164.76
172.77
183.75
198.30
216.08
235.16
251.98
261.90
260.57
245.31
216.08
175.90
128.73
78.58
28.00
-22.34
-73.10
-125.23
-178.72
-231.97
-281.49
-323.23
-353.26
-369.14
-370.68
-360.04
-340.91
-317.20
-291.97
-266.83
-242.49
-219.35
-198.00
-179.18
-163.27
-149.89
-137.90
-125.89
-112.76
-98.39
-83.57
-69.63
-57.86
-48.89
-42.50
-37.76
-33.43
-28.52
-22.67
-16.22
-9.94
-4.61
-0.60
2.22
4.37
6.41
8.69
11.23
13.77
15.98
17.61
18.60
19.04
19.14
19.15
19.22
19.45
19.79
20.14
20.35
20.28
19.87
19.14
18.22
17.25
16.39
15.73
15.29
15.02
14.80
14.52
14.14
13.67
13.15
12.65
12.21
11.84
11.56
11.37
11.27
11.25
11.24
11.18
11.01
10.67
10.18
9.56
8.86
8.19
7.65
7.37
7.39
7.73
8.24
8.71
8.95
8.82
8.34
7.67
7.01
6.54
6.32
6.30
6.35
6.37
6.32
6.21
6.08
5.93
5.72
5.43
5.09
4.74
4.47
4.31
4.24
4.21
4.18
4.14
4.11
4.10
4.11
4.11
4.04
3.88
3.65
3.37
3.07
2.79
2.54
2.33
2.17
2.08
2.00
1.91
1.74
1.49
1.18
0.84
0.51
0.20
-0.09
-0.33
-0.53
-0.63
-0.64
-0.59
-0.52
-0.49
-0.50
-0.51
-0.45
-0.28
-0.04
0.19
0.31
0.33
0.31
0.34
0.51
0.79
1.09
1.31
1.39
1.35
1.23
1.11
1.00
0.87
0.70
0.50
0.37
0.38
0.58
0.91
1.25
1.49
1.58
1.54
1.44
1.36
1.30
1.27
1.24
1.25
1.34
1.54
1.81
2.04
2.09
1.90
1.49
1.01
0.65
0.55
0.73
1.09
1.50
1.83
2.06
2.20
2.34
2.51
2.74
2.96
3.08
3.03
2.78
2.37
1.89
1.46
1.16
1.04
1.06
1.17
1.29
1.38
1.41
1.39
1.34
1.26
1.18
1.12
1.13
1.24
1.43
1.65
1.80
1.81
1.65
1.36
1.00
0.66
0.39
0.24
0.21
0.29
0.47
0.68
0.89
1.02
1.04
0.96
0.84
0.75
0.75
0.85
1.05
1.27
1.47
1.58
1.57
1.42
1.19
0.93
0.70
0.55
0.49
0.52
0.62
0.74
0.87
0.94
0.94
0.83
0.66
0.50
0.41
0.45
0.56
0.66
0.60
0.35
-0.02
-0.36
-0.48
-0.30
0.13
0.67
1.14
1.41
1.42
1.23
0.90
0.54
0.25
0.07
0.00
0.02
0.08
0.15
0.22
0.30
0.39
0.50
0.58
0.59
0.54
0.44
0.36
0.36
0.45
0.59
0.73
0.81
0.82
0.74
0.61
0.49
0.43
0.45
0.53
0.62
0.64
0.57
0.45
0.34
0.33
0.41
0.53
0.60
0.57
0.45
0.33
0.28
0.34
0.46
0.56
0.57
0.44
0.21
-0.03
-0.19
-0.20
-0.05
0.18
0.39
0.46
0.37
0.16
-0.04
-0.11
0.00
0.21
0.38
0.41
0.27
0.05
-0.15
-0.24
-0.21
-0.11
-0.01
0.08
0.17
0.26
0.34
0.37
0.29
0.10
-0.15
-0.39
-0.52
-0.48
-0.26
0.08
0.41
0.62
0.64
0.51
0.35
0.31
0.48
0.82
1.18
1.40
1.37
1.16
0.89
0.73
0.75
0.91
1.10
1.21
1.20
1.14
1.15
1.29
1.56
1.87
2.08
2.11
1.93
1.61
1.27
1.05
1.08
1.47
2.25
3.34
4.56
5.59
6.16
6.13
5.62
5.03
4.83
5.40
6.79
8.66
10.46
11.69
12.15
12.13
12.21
13.03
14.88
17.59
20.55
22.98
24.43
24.85
24.68
24.59
25.18
26.81
29.68
33.91
39.34
45.17
49.56
49.95
43.94
30.60
11.35
-10.22
-29.65
-43.43
-50.30
-51.41
-49.24
-46.14
-43.27
-40.50
-37.18
-33.00
-28.46
-24.59
-22.20
-21.45
-21.66
-21.79
-20.88
-18.63
-15.44
-12.20
-9.79
-8.67
-8.69
-9.20
-9.43
-8.83
-7.36
-5.41
-3.60
-2.43
-2.08
-2.34
-2.79
-3.03
-2.83
-2.26
-1.55
-0.96
-0.64
-0.56
-0.61
-0.64
-0.59
-0.45
-0.31
-0.23
-0.26
-0.39
-0.58
-0.76
-0.84
-0.77
-0.52
-0.16
0.20
0.42
0.40
0.11
-0.40
-1.03
-1.63
-2.08
-2.27
-2.20
-1.93
-1.59
-1.32
-1.24
-1.37
-1.62
-1.85
-1.91
-1.77
-1.47
-1.14
-0.89
-0.75
-0.66
-0.56
-0.37
-0.06
0.35
0.79
1.20
1.54
1.74
1.78
1.63
1.36
1.02
0.73
0.58
0.63
0.89
1.29
1.76
2.19
2.50
2.61
2.46
2.07
1.49
0.87
0.33
-0.01
-0.12
-0.07
0.08
0.25
0.45
0.66
0.92
1.22
1.52
1.77
1.91
1.92
1.77
1.49
1.13
0.77
0.55
0.54
0.78
1.18
1.58
1.82
1.81
1.55
1.15
0.72
0.38
0.14
-0.05
-0.25
-0.54
-0.91
-1.32
-1.66
-1.82
-1.76
-1.50
-1.18
-0.93
-0.85
-0.98
-1.26
-1.60
-1.93
-2.15
-2.22
-2.06
-1.65
-1.00
-0.24
0.48
1.01
1.29
1.42
1.58
2.00
2.75
3.77
4.85
5.74
6.26
6.38
6.21
5.89
5.55
5.19
4.80
4.32
3.76
3.14
2.47
1.73
0.87
-0.13
-1.22
-2.28
-3.16
-3.78
-4.12
-4.25
-4.23
-4.11
-3.93
-3.73
-3.57
-3.50
-3.54
-3.63
-3.68
-3.65
-3.53
-3.37
-3.19
-2.99
-2.70
-2.26
-1.67
-1.04
-0.52
-0.23
-0.23
-0.44
-0.76
-1.05
-1.20
-1.18
-1.05
-0.88
-0.76
-0.75
-0.87
-1.08
-1.29
-1.39
-1.32
-1.10
-0.80
-0.55
-0.42
-0.46
-0.59
-0.69
-0.66
-0.45
-0.10
0.30
0.65
0.86
0.92
0.83
0.67
0.50
0.39
0.35
0.37
0.41
0.40
0.30
0.11
-0.14
-0.36
-0.48
-0.45
-0.27
-0.01
0.23
0.40
0.43
0.37
0.25
0.13
0.04
-0.02
-0.07
-0.13
-0.19
-0.24
-0.28
-0.31
-0.33
-0.35
-0.36
-0.36
-0.35
-0.33
-0.34
-0.38
-0.42
-0.43
-0.39
-0.28
-0.14
-0.01
0.05
0.03
-0.06
-0.20
-0.36
-0.55
-0.76
-1.03
-1.31
-1.56
-1.73
-1.76
-1.65
-1.40
-1.05
-0.67
-0.32
-0.04
0.10
0.08
-0.11
-0.41
-0.73
-0.96
-1.04
-0.99
-0.91
-0.89
-1.02
-1.29
-1.62
-1.93
-2.16
-2.27
-2.21
-1.91
-1.32
-0.44
0.67
1.81
2.76
3.35
3.51
3.31
2.91
2.51
2.26
2.22
2.33
2.44
2.42
2.17
1.73
1.24
0.85
0.69
0.74
0.92
1.07
1.12
1.05
0.92
0.75
0.54
0.28
-0.03
-0.34
-0.54
-0.54
-0.35
-0.03
0.28
0.44
0.40
0.17
-0.17
-0.55
-0.91
-1.26
-1.56
-1.85
-2.10
-2.34
-2.59
-2.85
-3.14
-3.42
-3.67
-3.87
-4.04
-4.22
-4.45
-4.76
-5.15
-5.59
-6.05
-6.52
-7.00
-7.51
-8.03
-8.50
-8.88
-9.18
-9.46
-9.85
-10.44
-11.20
-11.96
-12.42
-12.29
-11.44
-9.92
-7.89
-5.54
-2.98
-0.25
2.61
5.44
7.97
9.91
11.08
11.48
11.31
10.82
10.23
9.67
9.18
8.79
8.53
8.42
8.45
8.53
8.59
8.53
8.31
7.98
7.59
7.20
6.86
6.58
6.34
6.10
5.83
5.49
5.05
4.49
3.84
3.14
2.48
1.93
1.54
1.31
1.19
1.16
1.17
1.25
1.41
1.64
1.86
1.94
1.79
1.34
0.69
-0.01
-0.56
-0.84
-0.85
-0.67
-0.46
-0.34
-0.34
-0.44
-0.56
-0.65
-0.71
-0.77
-0.83
-0.87
-0.82
-0.63
-0.31
0.08
0.40
0.57
0.54
0.35
0.07
-0.19
-0.39
-0.48
-0.46
-0.37
-0.22
-0.04
0.16
0.41
0.70
1.02
1.32
1.53
1.57
1.40
1.08
0.72
0.43
0.31
0.36
0.50
0.61
0.61
0.48
0.27
0.05
-0.08
-0.10
0.01
0.20
0.43
0.63
0.74
0.72
0.55
0.31
0.08
-0.01
0.11
0.43
0.86
1.27
1.55
1.69
1.78
2.01
2.54
3.41
4.48
5.46
6.03
5.99
5.38
4.53
3.92
3.96
4.74
5.96
7.01
7.29
6.54
4.97
3.16
1.80
1.30
1.66
2.49
3.31
3.65
3.10
1.22
-2.47
-8.29
-16.23
-25.73
-35.85
-45.52
-53.99
-60.87
-66.10
-69.76
-71.86
-72.54
-72.17
-71.49
-71.52
-73.26
-77.43
-84.08
-92.29
-99.83
-103.35
-99.15
-84.70
-60.06
-28.38
4.94
34.21
55.56
68.18
73.83
75.36
74.97
73.44
70.50
65.84
59.97
54.17
49.84
47.62
47.00
46.68
45.31
42.18
37.54
32.39
27.92
24.95
23.59
23.29
23.17
22.42
20.65
17.99
14.93
12.11
10.00
8.84
8.55
8.83
9.33
9.76
10.00
10.08
10.13
10.23
10.39
10.53
10.51
10.20
9.57
8.63
7.48
6.24
5.01
3.90
3.04
2.49
2.27
2.28
2.40
2.48
2.42
2.26
2.07
1.93
1.87
1.83
1.71
1.50
1.26
1.13
1.20
1.45
1.73
1.87
1.74
1.39
0.99
0.69
0.57
0.53
0.39
0.02
-0.54
-1.12
-1.49
-1.54
-1.34
-1.08
-0.94
-0.98
-1.12
-1.19
-1.07
-0.77
-0.43
-0.22
-0.25
-0.52
-0.91
-1.23
-1.33
-1.17
-0.81
-0.44
-0.24
-0.31
-0.61
-0.98
-1.21
-1.20
-0.99
-0.77
-0.72
-0.88
-1.18
-1.44
-1.55
-1.51
-1.45
-1.47
-1.60
-1.72
-1.68
-1.40
-0.91
-0.37
0.07
0.35
0.53
0.74
1.07
1.51
1.99
2.37
2.57
2.54
2.31
1.93
1.49
1.08
0.77
0.60
0.57
0.63
0.73
0.80
0.85
0.87
0.89
0.92
0.96
0.99
1.01
1.04
1.09
1.20
1.36
1.58
1.82
2.05
2.22
2.32
2.36
2.37
2.45
2.67
3.07
3.63
4.30
4.96
5.50
5.80
5.82
5.57
5.15
4.71
4.41
4.31
4.36
4.38
4.14
3.47
2.30
0.75
-0.99
-2.70
-4.24
-5.54
-6.60
-7.43
-7.99
-8.26
-8.21
-7.82
-7.17
-6.34
-5.46
-4.67
-4.09
-3.78
-3.75
-3.95
-4.27
-4.53
-4.53
-4.11
-3.17
-1.70
0.16
2.16
4.01
5.44
6.34
6.76
6.89
7.00
7.26
7.69
8.14
8.36
8.16
7.49
6.49
5.36
4.32
3.47
2.80
2.24
1.79
1.48
1.43
1.71
2.30
3.10
3.87
4.42
4.56
4.21
3.36
2.04
0.38
-1.48
-3.31
-4.92
-6.13
-6.85
-7.14
-7.09
-6.87
-6.56
-6.21
-5.81
-5.33
-4.79
-4.27
-3.84
-3.56
-3.42
-3.34
-3.19
-2.90
-2.45
-1.93
-1.44
-1.09
-0.91
-0.89
-0.97
-1.07
-1.14
-1.18
-1.17
-1.16
-1.13
-1.08
-0.98
-0.84
-0.66
-0.49
-0.39
-0.39
-0.49
-0.67
-0.84
-0.97
-0.98
-0.88
-0.67
-0.36
-0.03
0.25
0.36
0.25
-0.05
-0.44
-0.77
-0.92
-0.86
-0.65
-0.41
-0.24
-0.22
-0.35
-0.57
-0.82
-1.04
-1.18
-1.21
-1.15
-1.01
-0.83
-0.65
-0.48
-0.35
-0.26
-0.21
-0.20
-0.22
-0.26
-0.30
-0.30
-0.23
-0.06
0.22
0.58
0.91
1.09
1.02
0.67
0.15
-0.38
-0.73
-0.80
-0.61
-0.26
0.09
0.31
0.35
0.22
-0.01
-0.27
-0.49
-0.59
-0.55
-0.37
-0.10
0.18
0.39
0.44
0.34
0.12
-0.12
-0.31
-0.39
-0.38
-0.28
-0.13
0.05
0.27
0.48
0.63
0.71
0.68
0.60
0.50
0.44
0.38
0.29
0.13
-0.09
-0.31
-0.44
-0.44
-0.33
-0.16
-0.00
0.08
0.07
-0.02
-0.13
-0.22
-0.23
-0.14
0.04
0.25
0.43
0.52
0.52
0.45
0.35
0.25
0.16
0.05
-0.09
-0.25
-0.39
-0.50
-0.60
-0.67
-0.71
-0.71
-0.64
-0.51
-0.34
-0.15
0.05
0.26
0.42
0.51
0.44
0.21
-0.12
-0.44
-0.60
-0.50
-0.19
0.22
0.55
0.67
0.55
0.27
-0.05
-0.29
-0.36
-0.24
-0.00
0.29
0.56
0.73
0.79
0.78
0.74
0.71
0.71
0.73
0.75
0.75
0.74
0.77
0.85
0.99
1.17
1.35
1.49
1.61
1.70
1.78
1.82
1.77
1.59
1.27
0.87
0.51
0.30
0.30
0.47
0.68
0.78
0.67
0.34
-0.12
-0.61
-1.02
-1.32
-1.51
-1.61
-1.62
-1.54
-1.35
-1.11
-0.91
-0.81
-0.85
-0.99
-1.12
-1.15
-1.05
-0.89
-0.77
-0.80
-0.98
-1.20
-1.34
-1.28
-0.99
-0.54
-0.05
0.34
0.51
0.40
0.05
-0.43
-0.85
-1.03
-0.85
-0.37
0.24
0.73
0.93
0.80
0.45
0.05
-0.25
-0.41
-0.46
-0.46
-0.46
-0.46
-0.45
-0.40
-0.34
-0.28
-0.25
-0.26
-0.28
-0.33
-0.40
-0.51
-0.70
-0.94
-1.18
-1.30
-1.22
-0.92
-0.47
-0.00
0.33
0.46
0.40
0.24
0.08
-0.02
-0.06
-0.09
-0.12
-0.14
-0.11
0.00
0.18
0.35
0.43
0.36
0.19
0.00
-0.08
-0.01
0.20
0.42
0.56
0.57
0.47
0.36
0.29
0.28
0.29
0.28
0.24
0.22
0.26
0.40
0.58
0.72
0.72
0.56
0.31
0.08
-0.05
-0.02
0.13
0.32
0.45
0.49
0.42
0.32
0.26
0.28
0.38
0.49
0.54
0.48
0.30
0.06
-0.14
-0.20
-0.08
0.17
0.43
0.54
0.41
0.08
-0.32
-0.60
-0.66
-0.48
-0.19
0.09
0.26
0.30
0.28
0.22
0.14
-0.02
-0.27
-0.58
-0.84
-0.97
-0.96
-0.87
-0.79
-0.80
-0.86
-0.88
-0.79
-0.56
-0.29
-0.05
0.07
0.09
0.04
-0.02
-0.06
-0.06
-0.01
0.10
0.28
0.50
0.69
0.79
0.76
0.64
0.51
0.48
0.57
0.73
0.88
0.91
0.80
0.56
0.27
-0.01
-0.23
-0.39
-0.48
-0.51
-0.47
-0.38
-0.25
-0.12
-0.00
0.10
0.19
0.27
0.34
0.36
0.32
0.23
0.09
-0.06
-0.22
-0.35
-0.41
-0.36
-0.16
0.17
0.56
0.90
1.10
1.15
1.13
1.12
1.19
1.31
1.40
1.40
1.30
1.20
1.21
1.37
1.65
1.91
2.04
1.98
1.79
1.60
1.48
1.45
1.43
1.28
0.91
0.32
-0.36
-0.96
-1.33
-1.43
-1.33
-1.21
-1.18
-1.30
-1.50
-1.62
-1.57
-1.32
-0.98
-0.69
-0.60
-0.76
-1.10
-1.52
-1.86
-2.05
-2.04
-1.86
-1.57
-1.24
-0.94
-0.71
-0.61
-0.63
-0.75
-0.92
-1.05
-1.06
-0.86
-0.45
0.10
0.64
1.02
1.15
1.04
0.79
0.52
0.31
0.15
-0.00
-0.16
-0.27
-0.27
-0.10
0.21
0.55
0.81
0.91
0.83
0.61
0.30
-0.07
-0.42
-0.67
-0.76
-0.63
-0.35
-0.04
0.16
0.17
0.02
-0.20
-0.40
-0.59
-0.80
-1.07
-1.37
-1.59
-1.62
-1.40
-0.97
-0.47
-0.04
0.25
0.41
0.50
0.60
0.73
0.85
0.85
0.67
0.32
-0.14
-0.59
-0.92
-1.06
-1.05
-0.94
-0.82
-0.73
-0.62
-0.43
-0.11
0.33
0.78
1.10
1.17
0.99
0.65
0.29
0.02
-0.13
-0.20
-0.25
-0.29
-0.27
-0.15
0.09
0.38
0.61
0.67
0.54
0.28
-0.02
-0.29
-0.47
-0.55
-0.55
-0.50
-0.41
-0.33
-0.26
-0.23
-0.25
-0.30
-0.38
-0.46
-0.52
-0.54
-0.52
-0.46
-0.38
-0.29
-0.23
-0.19
-0.15
-0.06
0.07
0.23
0.34
0.37
0.31
0.23
0.22
0.32
0.55
0.78
0.91
0.82
0.50
0.08
-0.29
-0.46
-0.40
-0.17
0.09
0.24
0.28
0.26
0.24
0.27
0.32
0.32
0.25
0.13
0.05
0.08
0.23
0.44
0.60
0.66
0.61
0.51
0.42
0.39
0.43
0.50
0.57
0.60
0.58
0.51
0.41
0.33
0.31
0.36
0.47
0.59
0.65
0.62
0.51
0.37
0.31
0.38
0.58
0.82
1.01
1.10
1.08
1.02
0.97
0.98
1.01
1.00
0.92
0.78
0.59
0.39
0.20
-0.03
-0.30
-0.61
-0.91
-1.13
-1.22
-1.20
-1.14
-1.12
-1.19
-1.33
-1.49
-1.59
-1.62
-1.62
-1.66
-1.76
-1.92
-2.04
-2.07
-2.00
-1.91
-1.95
-2.16
-2.50
-2.81
-2.91
-2.74
-2.42
-2.19
-2.28
-2.78
-3.58
-4.43
-5.08
-5.38
-5.36
-5.17
-4.95
-4.78
-4.65
-4.53
-4.49
-4.66
-5.22
-6.26
-7.69
-9.28
-10.72
-11.80
-12.48
-12.94
-13.44
-14.25
-15.52
-17.21
-19.13
-20.94
-22.19
-22.42
-21.16
-18.13
-13.39
-7.43
-1.06
4.77
9.34
12.34
13.92
14.53
14.62
14.50
14.27
13.92
13.46
13.01
12.73
12.78
13.21
13.90
14.64
15.18
15.32
14.97
14.13
12.93
11.54
10.14
8.88
7.84
7.07
6.53
6.14
5.78
5.33
4.73
3.98
3.15
2.37
1.75
1.34
1.12
1.03
1.00
1.03
1.14
1.35
1.63
1.90
2.03
1.93
1.62
1.20
0.85
0.71
0.84
1.18
1.54
1.72
1.61
1.24
0.74
0.27
-0.03
-0.13
-0.09
0.01
0.09
0.14
0.14
0.13
0.13
0.15
0.20
0.32
0.50
0.72
0.94
1.10
1.19
1.21
1.19
1.11
0.97
0.74
0.44
0.17
0.03
0.12
0.41
0.78
1.08
1.19
1.07
0.76
0.31
-0.21
-0.79
-1.38
-1.92
-2.35
-2.61
-2.72
-2.73
-2.71
-2.69
-2.65
-2.53
-2.29
-1.98
-1.68
-1.50
-1.47
-1.50
-1.44
-1.16
-0.61
0.12
0.83
1.28
1.36
1.12
0.71
0.37
0.23
0.33
0.55
0.72
0.73
0.54
0.20
-0.18
-0.52
-0.75
-0.85
-0.79
-0.54
-0.09
0.52
1.17
1.67
1.83
1.58
0.99
0.24
-0.42
-0.81
-0.90
-0.81
-0.69
-0.67
-0.75
-0.85
-0.83
-0.58
-0.11
0.51
1.19
1.80
2.26
2.53
2.56
2.37
1.97
1.39
0.68
-0.08
-0.77
-1.29
-1.53
-1.45
-1.09
-0.59
-0.12
0.17
0.20
-0.00
-0.33
-0.64
-0.81
-0.79
-0.57
-0.23
0.15
0.48
0.68
0.71
0.56
0.28
-0.03
-0.28
-0.41
-0.44
-0.42
-0.43
-0.51
-0.64
-0.73
-0.75
-0.66
-0.47
-0.26
-0.08
0.04
0.07
0.04
-0.03
-0.07
-0.04
0.10
0.30
0.49
0.53
0.36
0.03
-0.30
-0.47
-0.40
-0.14
0.15
0.32
0.31
0.18
0.08
0.10
0.24
0.43
0.56
0.60
0.60
0.61
0.67
0.75
0.78
0.71
0.54
0.34
0.17
0.11
0.12
0.18
0.23
0.23
0.16
0.01
-0.21
-0.48
-0.72
-0.82
-0.72
-0.44
-0.07
0.24
0.43
0.48
0.45
0.42
0.40
0.35
0.24
0.06
-0.15
-0.31
-0.37
-0.32
-0.18
-0.03
0.11
0.19
0.20
0.10
-0.11
-0.37
-0.60
-0.72
-0.69
-0.53
-0.28
-0.00
0.28
0.57
0.85
1.07
1.15
1.05
0.79
0.46
0.18
0.05
0.10
0.23
0.33
0.30
0.14
-0.06
-0.17
-0.15
-0.01
0.16
0.26
0.26
0.22
0.19
0.25
0.37
0.50
0.55
0.52
0.44
0.38
0.36
0.37
0.32
0.16
-0.11
-0.44
-0.72
-0.90
-0.97
-0.98
-0.96
-0.94
-0.89
-0.76
-0.54
-0.24
0.09
0.40
0.66
0.88
1.03
1.13
1.18
1.19
1.18
1.18
1.17
1.16
1.12
1.07
1.10
1.30
1.73
2.34
2.98
3.46
3.62
3.42
2.93
2.31
1.70
1.19
0.82
0.56
0.38
0.22
0.01
-0.33
-0.85
-1.57
-2.39
-3.17
-3.72
-3.94
-3.82
-3.48
-3.10
-2.84
-2.78
-2.88
-3.04
-3.17
-3.20
-3.11
-2.94
-2.70
-2.44
-2.19
-1.99
-1.89
-1.89
-1.97
-2.06
-2.07
-1.94
-1.66
-1.30
-0.95
-0.71
-0.64
-0.74
-0.97
-1.23
-1.46
-1.57
-1.51
-1.30
-0.98
-0.66
-0.44
-0.39
-0.51
-0.73
-0.90
-0.92
-0.69
-0.22
0.44
1.18
1.92
2.53
2.92
3.02
2.82
2.41
1.91
1.45
1.11
0.92
0.82
0.73
0.62
0.47
0.28
0.08
-0.12
-0.29
-0.38
-0.40
-0.35
-0.33
-0.40
-0.57
-0.74
-0.75
-0.41
0.35
1.44
2.65
3.73
4.50
4.88
4.90
4.63
4.18
3.65
3.15
2.75
2.47
2.26
2.00
1.59
0.98
0.24
-0.51
-1.12
-1.56
-1.86
-2.09
-2.34
-2.59
-2.79
-2.86
-2.78
-2.58
-2.33
-2.09
-1.88
-1.66
-1.38
-0.99
-0.48
0.11
0.68
1.13
1.34
1.29
1.06
0.79
0.63
0.70
0.95
1.26
1.43
1.37
1.08
0.66
0.26
-0.01
-0.12
-0.11
-0.06
-0.05
-0.11
-0.25
-0.42
-0.52
-0.47
-0.24
0.11
0.49
0.76
0.86
0.83
0.73
0.66
0.65
0.68
0.72
0.74
0.74
0.72
0.66
0.53
0.31
0.03
-0.24
-0.44
-0.55
-0.60
-0.67
-0.81
-0.98
-1.11
-1.12
-0.99
-0.80
-0.63
-0.57
-0.63
-0.76
-0.88
-0.94
-0.92
-0.81
-0.62
-0.33
0.07
0.52
0.94
1.20
1.24
1.08
0.82
0.57
0.39
0.29
0.18
0.01
-0.23
-0.48
-0.63
-0.62
-0.44
-0.15
0.15
0.36
0.42
0.31
0.06
-0.26
-0.55
-0.72
-0.75
-0.71
-0.66
-0.67
-0.74
-0.78
-0.71
-0.53
-0.34
-0.27
-0.42
-0.74
-1.07
-1.18
-0.97
-0.49
0.03
0.34
0.29
-0.08
-0.55
-0.95
-1.13
-1.12
-1.02
-0.92
-0.84
-0.70
-0.46
-0.09
0.31
0.63
0.73
0.59
0.28
-0.05
-0.23
-0.17
0.09
0.40
0.59
0.56
0.33
0.02
-0.20
-0.25
-0.16
-0.04
-0.03
-0.17
-0.40
-0.61
-0.70
-0.67
-0.58
-0.52
-0.59
-0.78
-1.04
-1.28
-1.45
-1.54
-1.56
-1.58
-1.60
-1.59
-1.46
-1.11
-0.50
0.34
1.29
2.18
2.91
3.46
3.86
4.14
4.30
4.27
4.01
3.52
2.88
2.23
1.68
1.24
0.85
0.47
0.07
-0.27
-0.44
-0.36
-0.07
0.31
0.64
0.80
0.78
0.63
0.45
0.34
0.32
0.41
0.58
0.83
1.14
1.49
1.82
2.01
1.99
1.70
1.18
0.56
-0.03
-0.52
-0.89
-1.21
-1.56
-1.97
-2.40
-2.74
-2.95
-3.01
-2.99
-2.95
-2.94
-2.95
-2.98
-3.01
-3.08
-3.23
-3.46
-3.71
-3.81
-3.59
-2.89
-1.68
-0.04
1.77
3.46
4.70
5.34
5.35
4.88
4.16
3.40
2.73
2.15
1.64
1.16
0.77
0.50
0.40
0.43
0.52
0.59
0.59
0.55
0.53
0.56
0.61
0.61
0.45
0.13
-0.29
-0.71
-1.01
-1.14
-1.12
-1.01
-0.87
-0.72
-0.56
-0.35
-0.10
0.18
0.42
0.57
0.60
0.51
0.36
0.17
-0.01
-0.17
-0.30
-0.43
-0.59
-0.80
-1.05
-1.28
-1.41
-1.40
-1.25
-1.04
-0.87
-0.81
-0.82
-0.84
-0.81
-0.71
-0.61
-0.58
-0.63
-0.70
-0.67
-0.48
-0.18
0.07
0.13
-0.08
-0.50
-0.98
-1.32
-1.38
-1.12
-0.61
0.04
0.68
1.18
1.43
1.39
1.09
0.60
0.07
-0.37
-0.64
-0.69
-0.56
-0.33
-0.09
0.10
0.22
0.26
0.22
0.10
-0.07
-0.23
-0.32
-0.28
-0.12
0.10
0.27
0.27
0.08
-0.22
-0.47
-0.54
-0.34
0.05
0.48
0.80
0.93
0.89
0.77
0.61
0.43
0.17
-0.19
-0.58
-0.86
-0.87
-0.57
-0.06
0.48
0.85
0.99
0.95
0.87
0.82
0.79
0.70
0.45
0.06
-0.36
-0.66
-0.72
-0.55
-0.27
-0.03
0.04
-0.09
-0.37
-0.69
-0.94
-1.07
-1.04
-0.88
-0.60
-0.24
0.16
0.55
0.87
1.06
1.09
1.00
0.83
0.65
0.54
0.50
0.50
0.47
0.33
0.08
-0.27
-0.62
-0.89
-1.01
-0.99
-0.87
-0.75
-0.64
-0.53
-0.34
0.01
0.53
1.15
1.70
2.05
2.10
1.85
1.40
0.92
0.60
0.54
0.76
1.17
1.58
1.81
1.75
1.39
0.85
0.34
0.01
-0.08
-0.00
0.08
0.03
-0.24
-0.66
-1.11
-1.45
-1.58
-1.54
-1.42
-1.35
-1.39
-1.55
-1.74
-1.91
-2.00
-1.99
-1.88
-1.65
-1.28
-0.74
-0.06
0.65
1.27
1.68
1.84
1.78
1.61
1.42
1.27
1.14
0.95
0.68
0.32
-0.07
-0.40
-0.62
-0.70
-0.69
-0.65
-0.60
-0.53
-0.41
-0.24
-0.04
0.10
0.10
-0.06
-0.34
-0.61
-0.79
-0.81
-0.70
-0.53
-0.36
-0.21
-0.07
0.12
0.35
0.58
0.73
0.75
0.64
0.48
0.35
0.32
0.40
0.53
0.63
0.67
0.60
0.43
0.19
-0.11
-0.41
-0.65
-0.79
-0.78
-0.64
-0.40
-0.11
0.19
0.47
0.67
0.75
0.65
0.35
-0.11
-0.62
-1.01
-1.16
-1.02
-0.64
-0.19
0.17
0.32
0.26
0.08
-0.06
-0.04
0.19
0.53
0.84
0.98
0.92
0.71
0.46
0.28
0.17
0.10
-0.01
-0.15
-0.28
-0.37
-0.39
-0.39
-0.41
-0.47
-0.53
-0.55
-0.50
-0.40
-0.32
-0.30
-0.34
-0.36
-0.28
-0.08
0.19
0.43
0.59
0.63
0.60
0.50
0.35
0.12
-0.20
-0.52
-0.76
-0.82
-0.67
-0.35
0.01
0.32
0.51
0.59
0.59
0.51
0.36
0.11
-0.22
-0.62
-0.98
-1.18
-1.14
-0.79
-0.20
0.48
1.05
1.34
1.28
0.94
0.51
0.14
-0.06
-0.12
-0.10
-0.10
-0.11
-0.10
-0.03
0.08
0.16
0.12
-0.08
-0.37
-0.60
-0.65
-0.46
-0.12
0.21
0.39
0.37
0.25
0.18
0.28
0.57
0.89
1.08
1.01
0.70
0.27
-0.07
-0.20
-0.14
0.02
0.14
0.16
0.06
-0.08
-0.20
-0.27
-0.28
-0.28
-0.32
-0.38
-0.44
-0.45
-0.38
-0.22
-0.01
0.20
0.35
0.39
0.32
0.17
-0.02
-0.20
-0.31
-0.34
-0.32
-0.29
-0.33
-0.47
-0.71
-0.95
-1.06
-0.95
-0.61
-0.13
0.32
0.59
0.66
0.58
0.48
0.44
0.47
0.50
0.43
0.22
-0.08
-0.37
-0.55
-0.56
-0.42
-0.21
-0.01
0.16
0.30
0.42
0.53
0.61
0.60
0.48
0.26
-0.02
-0.30
-0.54
-0.71
-0.81
-0.82
-0.74
-0.56
-0.33
-0.13
-0.02
-0.04
-0.17
-0.30
-0.30
-0.11
0.21
0.54
0.75
0.76
0.56
0.27
-0.00
-0.16
-0.16
-0.05
0.12
0.30
0.46
0.58
0.65
0.62
0.44
0.13
-0.29
-0.71
-1.00
-1.06
-0.86
-0.42
0.14
0.71
1.13
1.31
1.22
0.88
0.41
-0.03
-0.29
-0.29
-0.03
0.39
0.82
1.16
1.34
1.34
1.21
1.01
0.79
0.59
0.43
0.35
0.38
0.51
0.71
0.91
1.05
1.08
1.01
0.92
0.89
1.01
1.28
1.63
1.93
2.07
2.01
1.78
1.52
1.36
1.34
1.40
1.44
1.33
1.04
0.62
0.23
-0.02
-0.12
-0.19
-0.36
-0.72
-1.23
-1.77
-2.20
-2.49
-2.69
-2.91
-3.20
-3.51
-3.74
-3.73
-3.43
-2.92
-2.32
-1.81
-1.47
-1.32
-1.29
-1.32
-1.35
-1.37
-1.41
-1.47
-1.53
-1.54
-1.44
-1.20
-0.85
-0.46
-0.15
0.01
0.01
-0.11
-0.22
-0.23
-0.07
0.21
0.54
0.81
0.96
0.99
0.94
0.90
0.89
0.90
0.89
0.82
0.71
0.63
0.61
0.67
0.74
0.73
0.58
0.30
-0.01
-0.24
-0.34
-0.37
-0.42
-0.60
-0.97
-1.45
-1.89
-2.13
-2.04
-1.58
-0.88
-0.13
0.47
0.77
0.78
0.63
0.51
0.59
0.87
1.26
1.57
1.69
1.60
1.42
1.30
1.32
1.47
1.66
1.79
1.78
1.61
1.31
0.91
0.44
-0.10
-0.67
-1.21
-1.62
-1.80
-1.68
-1.28
-0.71
-0.14
0.25
0.37
0.25
0.02
-0.18
-0.23
-0.11
0.12
0.36
0.52
0.56
0.45
0.23
-0.06
-0.35
-0.54
-0.52
-0.27
0.19
0.77
1.33
1.73
1.89
1.79
1.47
1.04
0.58
0.23
0.08
0.24
0.71
1.42
2.21
2.90
3.34
3.51
3.54
3.67
4.15
5.17
6.78
8.94
11.51
14.35
17.30
20.27
23.16
25.82
28.04
29.63
30.51
30.81
30.92
31.39
32.69
34.95
37.85
40.77
43.09
44.56
45.37
45.85
46.08
45.73
44.22
40.95
35.36
26.73
14.11
-3.47
-26.16
-52.53
-79.36
-102.47
-118.20
-125.08
-124.40
-119.47
-114.16
-111.34
-112.09
-115.64
-119.99
-122.42
-120.07
-110.54
-92.71
-67.36
-37.38
-6.95
19.72
39.71
52.07
57.64
58.24
55.75
51.62
46.82
42.10
38.08
35.25
33.76
33.30
33.14
32.44
30.60
27.63
24.05
20.69
18.28
17.16
17.09
17.45
17.52
16.76
15.06
12.73
10.32
8.38
7.24
6.85
6.89
6.90
6.52
5.65
4.45
3.26
2.40
2.02
2.08
2.37
2.66
2.73
2.50
1.98
1.26
0.46
-0.24
-0.74
-0.96
-0.93
-0.74
-0.52
-0.37
-0.30
-0.31
-0.34
-0.39
-0.45
-0.57
-0.70
-0.79
-0.74
-0.53
-0.20
0.14
0.37
0.42
0.31
0.11
-0.06
-0.14
-0.10
0.05
0.24
0.41
0.49
0.47
0.36
0.23
0.12
0.08
0.11
0.15
0.18
0.21
0.25
0.31
0.34
0.29
0.09
-0.22
-0.55
-0.76
-0.71
-0.41
0.04
0.45
0.63
0.52
0.17
-0.29
-0.72
-1.02
-1.14
-1.09
-0.92
-0.68
-0.41
-0.15
0.05
0.21
0.32
0.37
0.37
0.27
0.08
-0.17
-0.42
-0.56
-0.55
-0.43
-0.27
-0.18
-0.20
-0.29
-0.36
-0.32
-0.15
0.11
0.33
0.42
0.36
0.21
0.08
0.06
0.18
0.42
0.67
0.86
0.91
0.82
0.61
0.34
0.08
-0.12
-0.19
-0.12
0.06
0.26
0.42
0.48
0.42
0.30
0.19
0.15
0.18
0.24
0.29
0.30
0.28
0.26
0.27
0.30
0.30
0.21
0.02
-0.25
-0.54
-0.75
-0.84
-0.78
-0.66
-0.56
-0.53
-0.58
-0.63
-0.63
-0.57
-0.48
-0.45
-0.50
-0.61
-0.69
-0.65
-0.47
-0.22
0.00
0.09
0.05
-0.04
-0.05
0.08
0.36
0.71
1.04
1.25
1.33
1.27
1.09
0.84
0.55
0.27
0.04
-0.14
-0.27
-0.37
-0.43
-0.43
-0.36
-0.23
-0.07
0.06
0.15
0.24
0.35
0.53
0.72
0.84
0.78
0.53
0.14
-0.26
-0.54
-0.63
-0.53
-0.32
-0.10
0.05
0.09
0.02
-0.13
-0.32
-0.48
-0.57
-0.52
-0.33
-0.02
0.30
0.54
0.61
0.49
0.23
-0.06
-0.31
-0.47
-0.53
-0.50
-0.40
-0.23
0.01
0.26
0.45
0.52
0.44
0.23
-0.04
-0.29
-0.50
-0.66
-0.80
-0.88
-0.87
-0.72
-0.44
-0.11
0.16
0.27
0.18
-0.07
-0.38
-0.61
-0.66
-0.49
-0.16
0.22
0.48
0.53
0.36
0.04
-0.31
-0.56
-0.67
-0.64
-0.50
-0.27
0.03
0.36
0.66
0.82
0.79
0.58
0.26
-0.03
-0.19
-0.19
-0.07
0.08
0.20
0.26
0.27
0.28
0.30
0.34
0.37
0.37
0.34
0.29
0.25
0.25
0.28
0.37
0.48
0.58
0.65
0.64
0.57
0.43
0.28
0.18
0.15
0.19
0.29
0.40
0.49
0.51
0.45
0.29
0.05
-0.21
-0.43
-0.55
-0.59
-0.58
-0.57
-0.57
-0.55
-0.48
-0.35
-0.17
-0.02
0.03
-0.05
-0.22
-0.42
-0.56
-0.60
-0.54
-0.39
-0.22
-0.06
0.04
0.06
0.01
-0.07
-0.16
-0.25
-0.32
-0.37
-0.39
-0.36
-0.29
-0.22
-0.18
-0.21
-0.33
-0.46
-0.51
-0.42
-0.20
0.09
0.38
0.58
0.69
0.72
0.68
0.59
0.47
0.33
0.22
0.18
0.23
0.35
0.47
0.54
0.52
0.46
0.39
0.35
0.30
0.20
-0.02
-0.32
-0.62
-0.79
-0.74
-0.48
-0.13
0.15
0.24
0.13
-0.08
-0.25
-0.28
-0.16
0.03
0.20
0.26
0.23
0.14
0.05
0.00
0.00
0.06
0.16
0.30
0.42
0.46
0.37
0.12
-0.26
-0.68
-1.02
-1.22
-1.22
-1.04
-0.74
-0.43
-0.20
-0.09
-0.07
-0.09
-0.06
0.04
0.18
0.31
0.35
0.31
0.26
0.26
0.35
0.46
0.48
0.34
0.06
-0.29
-0.56
-0.66
-0.57
-0.37
-0.15
-0.02
0.01
-0.01
-0.00
0.08
0.24
0.37
0.37
0.18
-0.18
-0.59
-0.91
-1.02
-0.93
-0.73
-0.56
-0.56
-0.73
-1.03
-1.34
-1.54
-1.55
-1.32
-0.86
-0.24
0.48
1.18
1.73
2.03
2.00
1.68
1.16
0.58
0.10
-0.20
-0.31
-0.34
-0.44
-0.72
-1.21
-1.84
-2.44
-2.86
-3.00
-2.91
-2.69
-2.48
-2.39
-2.44
-2.59
-2.78
-2.95
-3.10
-3.22
-3.34
-3.43
-3.47
-3.46
-3.38
-3.19
-2.83
-2.19
-1.22
0.04
1.43
2.70
3.67
4.26
4.54
4.69
4.83
5.03
5.20
5.23
5.03
4.61
4.06
3.52
3.08
2.75
2.49
2.21
1.85
1.38
0.86
0.39
0.08
-0.02
0.09
0.32
0.53
0.64
0.59
0.44
0.31
0.33
0.56
0.95
1.36
1.58
1.48
1.08
0.54
0.10
-0.05
0.15
0.57
0.98
1.16
1.03
0.65
0.19
-0.20
-0.44
-0.54
-0.58
-0.63
-0.72
-0.84
-0.97
-1.05
-1.06
-0.94
-0.72
-0.43
-0.16
0.00
0.01
-0.10
-0.21
-0.21
-0.04
0.26
0.59
0.83
0.88
0.75
0.50
0.22
0.01
-0.06
0.03
0.24
0.55
0.89
1.22
1.49
1.63
1.57
1.26
0.72
0.06
-0.51
-0.84
-0.81
-0.47
0.02
0.46
0.66
0.56
0.23
-0.22
-0.66
-1.00
-1.22
-1.34
-1.38
-1.37
-1.28
-1.06
-0.70
-0.24
0.20
0.48
0.51
0.26
-0.18
-0.67
-1.03
-1.18
-1.10
-0.87
-0.59
-0.36
-0.21
-0.12
-0.08
-0.04
0.01
0.05
0.07
0.03
-0.09
-0.28
-0.50
-0.68
-0.77
-0.73
-0.61
-0.44
-0.29
-0.18
-0.07
0.06
0.24
0.45
0.61
0.67
0.60
0.40
0.11
-0.23
-0.56
-0.79
-0.88
-0.79
-0.55
-0.25
0.01
0.14
0.12
-0.05
-0.29
-0.54
-0.75
-0.90
-1.00
-1.03
-1.02
-0.95
-0.83
-0.67
-0.52
-0.44
-0.48
-0.63
-0.84
-1.02
-1.08
-1.01
-0.89
-0.84
-0.95
-1.21
-1.52
-1.77
-1.87
-1.84
-1.78
-1.75
-1.79
-1.89
-2.01
-2.11
-2.20
-2.28
-2.36
-2.35
-2.13
-1.59
-0.66
0.55
1.88
3.08
3.96
4.47
4.63
4.55
4.30
3.96
3.54
3.14
2.86
2.78
2.93
3.18
3.34
3.20
2.67
1.84
0.94
0.23
-0.11
-0.03
0.35
0.81
1.15
1.20
0.95
0.49
-0.03
-0.44
-0.68
-0.74
-0.73
-0.73
-0.80
-0.90
-0.94
-0.84
-0.56
-0.18
0.20
0.45
0.51
0.40
0.18
-0.05
-0.25
-0.43
-0.59
-0.76
-0.89
-0.92
-0.81
-0.54
-0.18
0.18
0.45
0.56
0.52
0.36
0.12
-0.15
-0.44
-0.74
-1.03
-1.29
-1.52
-1.70
-1.82
-1.87
-1.87
-1.81
-1.70
-1.54
-1.37
-1.18
-0.99
-0.81
-0.61
-0.39
-0.07
0.36
0.91
1.51
2.02
2.32
2.35
2.16
1.88
1.62
1.46
1.34
1.21
1.01
0.78
0.62
0.62
0.79
1.05
1.28
1.39
1.37
1.27
1.18
1.13
1.09
0.99
0.76
0.38
-0.08
-0.53
-0.86
-0.98
-0.89
-0.65
-0.36
-0.10
0.05
0.10
0.08
0.02
-0.04
-0.10
-0.19
-0.31
-0.46
-0.59
-0.67
-0.68
-0.62
-0.53
-0.44
-0.41
-0.45
-0.55
-0.65
-0.72
-0.72
-0.63
-0.50
-0.35
-0.22
-0.13
-0.06
0.00
0.06
0.11
0.12
0.07
-0.05
-0.21
-0.37
-0.50
-0.57
-0.57
-0.54
-0.55
-0.64
-0.82
-1.02
-1.14
-1.09
-0.82
-0.39
0.07
0.43
0.62
0.65
0.57
0.46
0.33
0.19
0.03
-0.14
-0.24
-0.24
-0.10
0.15
0.43
0.68
0.83
0.89
0.89
0.85
0.79
0.68
0.50
0.24
-0.05
-0.30
-0.41
-0.35
-0.11
0.21
0.50
0.67
0.65
0.46
0.15
-0.18
-0.46
-0.60
-0.59
-0.48
-0.31
-0.17
-0.09
-0.07
-0.11
-0.21
-0.40
-0.74
-1.22
-1.78
-2.28
-2.55
-2.48
-2.08
-1.48
-0.91
-0.57
-0.57
-0.87
-1.37
-1.92
-2.49
-3.04
-3.62
-4.14
-4.41
-4.21
-3.35
-1.88
-0.09
1.59
2.79
3.34
3.34
3.04
2.69
2.43
2.24
2.06
1.86
1.70
1.66
1.79
2.07
2.39
2.62
2.67
2.55
2.29
1.96
1.60
1.25
0.92
0.66
0.47
0.39
0.42
0.53
0.69
0.87
1.02
1.11
1.08
0.94
0.72
0.51
0.38
0.38
0.47
0.57
0.57
0.44
0.25
0.10
0.11
0.28
0.56
0.85
1.06
1.14
1.08
0.87
0.55
0.14
-0.26
-0.55
-0.66
-0.61
-0.46
-0.34
-0.34
-0.50
-0.77
-1.09
-1.37
-1.57
-1.62
-1.49
-1.19
-0.77
-0.33
0.03
0.24
0.29
0.27
0.25
0.29
0.35
0.35
0.20
-0.13
-0.61
-1.12
-1.51
-1.68
-1.58
-1.26
-0.86
-0.52
-0.34
-0.33
-0.41
-0.48
-0.48
-0.40
-0.26
-0.10
0.05
0.19
0.32
0.42
0.43
0.33
0.16
-0.04
-0.18
-0.22
-0.17
-0.03
0.14
0.32
0.47
0.57
0.58
0.48
0.29
0.06
-0.15
-0.29
-0.34
-0.31
-0.21
-0.06
0.15
0.38
0.58
0.64
0.49
0.12
-0.35
-0.75
-0.92
-0.76
-0.33
0.23
0.73
1.06
1.18
1.11
0.91
0.63
0.31
0.01
-0.24
-0.36
-0.36
-0.23
-0.06
0.10
0.17
0.14
0.05
-0.04
-0.06
0.03
0.17
0.29
0.31
0.16
-0.11
-0.40
-0.59
-0.60
-0.45
-0.22
-0.06
-0.01
-0.05
-0.10
-0.06
0.09
0.28
0.43
0.48
0.43
0.34
0.29
0.29
0.29
0.22
0.05
-0.16
-0.34
-0.42
-0.40
-0.33
-0.28
-0.28
-0.32
-0.38
-0.45
-0.56
-0.73
-0.93
-1.10
-1.14
-1.00
-0.68
-0.26
0.15
0.44
0.58
0.55
0.37
0.06
-0.34
-0.75
-1.05
-1.12
-0.94
-0.60
-0.28
-0.14
-0.24
-0.51
-0.78
-0.91
-0.89
-0.79
-0.78
-0.95
-1.25
-1.55
-1.69
-1.55
-1.17
-0.63
-0.10
0.34
0.61
0.74
0.77
0.75
0.74
0.80
0.97
1.26
1.63
2.02
2.32
2.49
2.53
2.49
2.45
2.44
2.42
2.35
2.14
1.78
1.27
0.66
0.03
-0.55
-0.97
-1.17
-1.12
-0.86
-0.52
-0.21
-0.01
0.08
0.15
0.24
0.35
0.38
0.23
-0.11
-0.57
-0.98
-1.20
-1.17
-0.96
-0.71
-0.53
-0.44
-0.38
-0.26
-0.05
0.22
0.46
0.60
0.63
0.57
0.46
0.31
0.08
-0.24
-0.61
-0.91
-1.05
-0.96
-0.65
-0.27
0.05
0.19
0.17
0.10
0.08
0.19
0.40
0.60
0.71
0.67
0.52
0.35
0.22
0.17
0.17
0.16
0.06
-0.13
-0.35
-0.50
-0.49
-0.32
-0.04
0.22
0.37
0.37
0.29
0.23
0.25
0.31
0.32
0.21
0.00
-0.18
-0.20
0.03
0.46
0.92
1.22
1.25
1.02
0.65
0.28
0.01
-0.12
-0.16
-0.13
-0.08
-0.05
-0.08
-0.18
-0.36
-0.58
-0.82
-1.01
-1.09
-1.02
-0.76
-0.36
0.07
0.40
0.48
0.30
-0.09
-0.53
-0.86
-1.01
-0.95
-0.76
-0.51
-0.21
0.10
0.40
0.62
0.72
0.67
0.51
0.34
0.26
0.32
0.49
0.67
0.77
0.76
0.66
0.55
0.49
0.51
0.53
0.51
0.39
0.21
0.02
-0.12
-0.20
-0.26
-0.33
-0.43
-0.52
-0.58
-0.56
-0.47
-0.34
-0.18
-0.02
0.12
0.22
0.25
0.20
0.09
-0.04
-0.14
-0.19
-0.23
-0.29
-0.36
-0.42
-0.40
-0.24
0.04
0.36
0.62
0.74
0.72
0.61
0.52
0.50
0.57
0.71
0.85
0.97
1.06
1.10
1.08
0.96
0.73
0.39
-0.01
-0.37
-0.62
-0.73
-0.69
-0.54
-0.31
-0.01
0.33
0.68
0.96
1.10
1.06
0.86
0.60
0.38
0.25
0.20
0.18
0.12
-0.02
-0.22
-0.41
-0.54
-0.60
-0.62
-0.66
-0.74
-0.84
-0.90
-0.87
-0.74
-0.57
-0.44
-0.42
-0.49
-0.59
-0.61
-0.53
-0.38
-0.25
-0.23
-0.34
-0.51
-0.63
-0.60
-0.38
-0.03
0.35
0.63
0.71
0.55
0.19
-0.26
-0.64
-0.83
-0.78
-0.51
-0.13
0.25
0.56
0.77
0.87
0.90
0.84
0.73
0.57
0.42
0.32
0.26
0.23
0.19
0.09
-0.08
-0.29
-0.49
-0.65
-0.71
-0.68
-0.58
-0.43
-0.30
-0.20
-0.14
-0.11
-0.09
-0.07
-0.07
-0.09
-0.17
-0.26
-0.36
-0.42
-0.45
-0.49
-0.57
-0.69
-0.78
-0.76
-0.60
-0.32
-0.00
0.22
0.26
0.14
-0.07
-0.28
-0.42
-0.51
-0.58
-0.68
-0.77
-0.81
-0.74
-0.53
-0.26
0.01
0.19
0.29
0.33
0.35
0.38
0.39
0.37
0.33
0.32
0.38
0.49
0.59
0.56
0.37
0.06
-0.24
-0.41
-0.37
-0.17
0.08
0.27
0.32
0.29
0.24
0.25
0.35
0.48
0.58
0.58
0.45
0.24
0.02
-0.10
-0.07
0.07
0.26
0.37
0.32
0.12
-0.20
-0.51
-0.77
-0.93
-1.02
-1.10
-1.17
-1.23
-1.22
-1.10
-0.91
-0.68
-0.49
-0.38
-0.33
-0.28
-0.21
-0.10
0.02
0.11
0.19
0.30
0.49
0.74
0.95
1.02
0.88
0.56
0.18
-0.16
-0.38
-0.50
-0.56
-0.62
-0.67
-0.68
-0.59
-0.39
-0.12
0.16
0.39
0.53
0.56
0.48
0.33
0.14
-0.06
-0.23
-0.38
-0.49
-0.56
-0.59
-0.58
-0.53
-0.42
-0.30
-0.19
-0.13
-0.18
-0.32
-0.53
-0.71
-0.77
-0.66
-0.39
-0.04
0.27
0.43
0.43
0.29
0.11
-0.01
-0.00
0.13
0.32
0.47
0.48
0.32
0.00
-0.37
-0.68
-0.83
-0.77
-0.52
-0.14
0.29
0.70
1.04
1.26
1.29
1.13
0.78
0.32
-0.17
-0.56
-0.77
-0.78
-0.63
-0.39
-0.16
0.01
0.07
0.01
-0.13
-0.30
-0.49
-0.70
-0.94
-1.20
-1.39
-1.41
-1.17
-0.66
-0.01
0.62
1.06
1.24
1.22
1.10
1.01
0.99
1.04
1.14
1.24
1.32
1.36
1.33
1.21
1.02
0.80
0.63
0.55
0.52
0.49
0.38
0.17
-0.08
-0.29
-0.42
-0.47
-0.46
-0.39
-0.24
0.03
0.39
0.75
1.02
1.11
1.06
0.95
0.90
0.94
1.03
1.07
0.98
0.76
0.49
0.26
0.14
0.11
0.08
0.01
-0.10
-0.20
-0.20
-0.07
0.15
0.33
0.34
0.13
-0.27
-0.75
-1.17
-1.41
-1.45
-1.34
-1.16
-0.97
-0.83
-0.74
-0.67
-0.59
-0.47
-0.29
-0.06
0.18
0.35
0.43
0.37
0.20
-0.06
-0.33
-0.56
-0.68
-0.72
-0.69
-0.66
-0.66
-0.66
-0.63
-0.52
-0.35
-0.18
-0.10
-0.16
-0.33
-0.48
-0.52
-0.37
-0.07
0.30
0.63
0.81
0.80
0.60
0.25
-0.17
-0.57
-0.84
-0.89
-0.70
-0.33
0.11
0.48
0.68
0.67
0.49
0.20
-0.08
-0.27
-0.32
-0.19
0.10
0.49
0.87
1.16
1.28
1.21
0.98
0.67
0.34
0.06
-0.14
-0.22
-0.20
-0.11
-0.03
-0.03
-0.15
-0.35
-0.50
-0.49
-0.27
0.09
0.43
0.61
0.56
0.33
0.02
-0.26
-0.49
-0.68
-0.89
-1.15
-1.40
-1.59
-1.64
-1.54
-1.34
-1.13
-1.00
-0.99
-1.12
-1.32
-1.53
-1.67
-1.74
-1.77
-1.84
-1.97
-2.15
-2.34
-2.47
-2.53
-2.53
-2.50
-2.47
-2.46
-2.48
-2.55
-2.71
-2.97
-3.33
-3.68
-3.88
-3.75
-3.21
-2.29
-1.15
0.03
1.14
2.17
3.26
4.54
6.04
7.66
9.12
10.18
10.68
10.62
10.22
9.74
9.40
9.30
9.39
9.52
9.50
9.17
8.53
7.69
6.89
6.42
6.46
7.03
7.91
8.74
9.18
9.06
8.53
8.03
8.09
9.13
11.21
13.97
16.78
18.99
20.26
20.65
20.59
20.69
21.48
23.25
26.08
29.78
33.66
36.49
36.55
32.17
22.46
7.92
-9.55
-27.23
-42.61
-54.16
-61.70
-65.95
-67.87
-68.13
-66.91
-64.20
-60.27
-55.81
-51.90
-49.47
-48.92
-49.80
-50.81
-50.14
-46.11
-37.86
-25.77
-11.44
2.88
15.09
23.97
29.39
32.10
33.09
33.12
32.45
31.02
28.77
25.96
23.21
21.22
20.45
20.86
21.86
22.60
22.29
20.51
17.38
13.42
9.36
5.88
3.37
1.87
1.14
0.81
0.58
0.32
0.08
0.01
0.20
0.60
1.00
1.18
0.95
0.35
-0.48
-1.31
-1.92
-2.22
-2.25
-2.13
-1.99
-1.93
-1.99
-2.15
-2.32
-2.42
-2.41
-2.27
-2.02
-1.70
-1.40
-1.19
-1.11
-1.18
-1.36
-1.56
-1.66
-1.60
-1.38
-1.07
-0.80
-0.65
-0.59
-0.59
-0.55
-0.43
-0.24
-0.04
0.13
0.26
0.40
0.64
1.01
1.47
1.90
2.15
2.12
1.81
1.41
1.16
1.30
1.86
2.68
3.44
3.84
3.76
3.34
2.91
2.82
3.32
4.39
5.81
7.23
8.32
8.87
8.93
8.80
8.94
9.83
11.68
14.34
17.27
19.74
21.20
21.59
21.46
21.77
23.45
26.89
31.61
36.43
40.03
41.66
41.72
41.67
43.50
48.91
58.67
72.38
88.58
104.79
117.57
122.76
116.38
96.06
62.57
20.39
-23.25
-60.69
-86.60
-99.53
-101.78
-97.63
-91.05
-84.32
-77.94
-71.56
-65.09
-59.07
-54.39
-51.50
-50.03
-48.87
-46.76
-43.03
-37.88
-32.26
-27.45
-24.34
-23.10
-23.11
-23.32
-22.74
-20.88
-17.94
-14.61
-11.73
-9.90
-9.22
-9.34
-9.64
-9.56
-8.78
-7.35
-5.61
-3.99
-2.83
-2.23
-2.05
-2.02
-1.83
-1.34
-0.58
0.29
1.03
1.48
1.61
1.47
1.17
0.76
0.27
-0.28
-0.89
-1.47
-1.92
-2.14
-2.08
-1.75
-1.22
-0.58
0.10
0.73
1.25
1.65
1.92
2.09
2.21
2.24
2.15
1.89
1.42
0.77
0.05
-0.61
-1.07
-1.29
-1.30
-1.24
-1.20
-1.26
-1.36
-1.40
-1.25
-0.83
-0.16
0.60
1.28
1.73
1.89
1.82
1.59
1.31
1.01
0.70
0.38
0.05
-0.24
-0.48
-0.68
-0.87
-1.11
-1.41
-1.74
-1.99
-2.05
-1.82
-1.31
-0.59
0.20
0.93
1.51
1.92
2.15
2.21
2.12
1.89
1.57
1.22
0.93
0.71
0.56
0.39
0.14
-0.24
-0.69
-1.12
-1.45
-1.64
-1.70
-1.66
-1.54
-1.35
-1.05
-0.64
-0.12
0.42
0.93
1.34
1.63
1.82
1.93
1.98
1.96
1.87
1.66
1.35
0.93
0.42
-0.13
-0.66
-1.12
-1.46
-1.69
-1.83
-1.97
-2.13
-2.31
-2.43
-2.38
-2.04
-1.40
-0.52
0.42
1.28
1.92
2.31
2.49
2.53
2.46
2.27
1.90
1.32
0.58
-0.20
-0.86
-1.27
-1.44
-1.46
-1.45
-1.49
-1.54
-1.52
-1.31
-0.90
-0.34
0.28
0.87
1.39
1.85
2.22
2.44
2.40
2.06
1.44
0.68
-0.02
-0.51
-0.71
-0.69
-0.58
-0.52
-0.61
-0.83
-1.12
-1.37
-1.49
-1.45
-1.26
-0.97
-0.64
-0.34
-0.09
0.13
0.30
0.42
0.43
0.28
-0.07
-0.61
-1.25
-1.89
-2.39
-2.67
-2.71
-2.58
-2.40
-2.32
-2.46
-2.84
-3.42
-4.00
-4.38
-4.44
-4.23
-3.97
-3.97
-4.49
-5.52
-6.79
-7.86
-8.31
-8.06
-7.41
-7.02
-7.60
-9.54
-12.70
-16.38
-19.62
-21.59
-22.04
-21.43
-20.78
-21.18
-23.32
-27.06
-31.55
-35.56
-38.11
-38.94
-38.60
-38.21
-38.96
-41.73
-46.95
-54.63
-63.99
-73.16
-78.91
-77.25
-64.97
-41.39
-9.47
24.71
54.16
73.62
81.57
80.17
73.66
66.01
59.34
53.81
48.67
43.52
38.83
35.59
34.43
35.06
36.25
36.50
34.76
30.91
25.87
21.04
17.71
16.46
16.92
18.02
18.48
17.48
14.95
11.59
8.43
6.35
5.69
6.12
6.93
7.40
7.08
5.99
4.51
3.11
2.17
1.79
1.85
2.04
2.09
1.81
1.25
0.60
0.09
-0.11
0.05
0.43
0.83
1.07
1.10
0.94
0.71
0.54
0.51
0.62
0.83
1.03
1.11
1.01
0.71
0.30
-0.07
-0.26
-0.19
0.10
0.47
0.78
0.92
0.84
0.62
0.33
0.06
-0.19
-0.41
-0.65
-0.90
-1.11
-1.22
-1.20
-1.07
-0.90
-0.74
-0.66
-0.62
-0.57
-0.47
-0.31
-0.14
-0.01
0.03
0.01
-0.05
-0.10
-0.14
-0.19
-0.29
-0.42
-0.51
-0.53
-0.44
-0.32
-0.24
-0.27
-0.39
-0.58
-0.75
-0.86
-0.90
-0.85
-0.71
-0.46
-0.13
0.25
0.59
0.78
0.82
0.71
0.54
0.35
0.14
-0.10
-0.39
-0.68
-0.89
-0.91
-0.73
-0.38
0.00
0.31
0.46
0.44
0.29
0.07
-0.15
-0.34
-0.44
-0.42
-0.29
-0.06
0.19
0.38
0.46
0.42
0.32
0.20
0.10
0.05
0.02
0.02
0.06
0.16
0.32
0.52
0.74
0.89
0.92
0.82
0.62
0.39
0.21
0.09
0.04
0.02
-0.04
-0.15
-0.33
-0.53
-0.68
-0.72
-0.62
-0.39
-0.08
0.20
0.39
0.42
0.32
0.16
0.00
-0.09
-0.13
-0.17
-0.22
-0.28
-0.29
-0.22
-0.05
0.15
0.31
0.38
0.35
0.25
0.13
0.00
-0.10
-0.20
-0.28
-0.35
-0.39
-0.40
-0.39
-0.36
-0.30
-0.19
-0.03
0.14
0.28
0.36
0.40
0.42
0.44
0.46
0.48
0.47
0.41
0.34
0.27
0.22
0.21
0.22
0.24
0.26
0.26
0.23
0.19
0.14
0.07
-0.01
-0.13
-0.28
-0.43
-0.52
-0.48
-0.30
-0.06
0.14
0.21
0.10
-0.10
-0.29
-0.38
-0.34
-0.24
-0.15
-0.12
-0.13
-0.15
-0.15
-0.14
-0.18
-0.28
-0.42
-0.54
-0.56
-0.43
-0.18
0.11
0.33
0.43
0.40
0.26
0.09
-0.10
-0.30
-0.52
-0.74
-0.87
-0.81
-0.53
-0.07
0.41
0.76
0.86
0.74
0.52
0.36
0.36
0.49
0.66
0.76
0.70
0.53
0.33
0.17
0.07
-0.00
-0.10
-0.23
-0.35
-0.41
-0.32
-0.09
0.22
0.51
0.69
0.73
0.64
0.46
0.23
-0.03
-0.31
-0.59
-0.84
-1.00
-1.04
-0.95
-0.77
-0.57
-0.40
-0.30
-0.27
-0.26
-0.23
-0.16
-0.09
-0.06
-0.09
-0.16
-0.21
-0.17
-0.02
0.21
0.44
0.58
0.59
0.46
0.24
-0.05
-0.34
-0.59
-0.74
-0.72
-0.50
-0.12
0.31
0.66
0.83
0.81
0.69
0.53
0.41
0.31
0.17
-0.03
-0.27
-0.48
-0.56
-0.48
-0.26
0.03
0.28
0.42
0.46
0.41
0.32
0.24
0.19
0.19
0.27
0.43
0.65
0.85
0.96
0.88
0.60
0.19
-0.22
-0.50
-0.59
-0.50
-0.30
-0.11
-0.01
-0.04
-0.15
-0.29
-0.39
-0.39
-0.27
-0.08
0.15
0.34
0.43
0.41
0.26
0.05
-0.16
-0.31
-0.37
-0.38
-0.37
-0.41
-0.50
-0.59
-0.63
-0.56
-0.37
-0.14
0.09
0.23
0.28
0.24
0.15
0.03
-0.12
-0.28
-0.44
-0.54
-0.53
-0.41
-0.16
0.14
0.45
0.69
0.83
0.84
0.74
0.57
0.40
0.31
0.29
0.31
0.28
0.16
-0.06
-0.34
-0.58
-0.74
-0.80
-0.80
-0.76
-0.69
-0.60
-0.48
-0.33
-0.15
0.05
0.29
0.57
0.84
1.03
1.07
0.94
0.70
0.47
0.34
0.32
0.36
0.36
0.26
0.08
-0.10
-0.21
-0.23
-0.16
-0.05
0.07
0.17
0.27
0.34
0.38
0.34
0.23
0.07
-0.10
-0.24
-0.32
-0.31
-0.21
-0.04
0.13
0.21
0.13
-0.10
-0.38
-0.59
-0.59
-0.36
-0.01
0.30
0.39
0.21
-0.18
-0.60
-0.87
-0.89
-0.68
-0.37
-0.07
0.11
0.16
0.11
0.03
-0.04
-0.09
-0.13
-0.21
-0.35
-0.54
-0.75
-0.90
-0.95
-0.87
-0.69
-0.47
-0.29
-0.23
-0.28
-0.40
-0.48
-0.43
-0.25
0.01
0.24
0.38
0.41
0.38
0.37
0.41
0.47
0.48
0.40
0.24
0.08
0.02
0.06
0.20
0.38
0.55
0.68
0.77
0.82
0.83
0.78
0.67
0.52
0.35
0.19
0.05
-0.01
0.02
0.14
0.30
0.41
0.39
0.22
-0.07
-0.36
-0.57
-0.65
-0.59
-0.45
-0.27
-0.09
0.04
0.11
0.10
0.02
-0.05
-0.04
0.06
0.23
0.37
0.37
0.19
-0.14
-0.51
-0.79
-0.91
-0.86
-0.68
-0.45
-0.23
-0.04
0.08
0.14
0.15
0.10
0.03
-0.04
-0.09
-0.09
-0.05
0.03
0.12
0.21
0.29
0.34
0.36
0.34
0.29
0.22
0.14
0.05
-0.04
-0.14
-0.22
-0.28
-0.28
-0.22
-0.10
0.05
0.20
0.29
0.30
0.24
0.16
0.08
0.03
-0.03
-0.10
-0.20
-0.31
-0.38
-0.37
-0.28
-0.13
0.03
0.16
0.21
0.18
0.07
-0.12
-0.35
-0.61
-0.82
-0.91
-0.84
-0.62
-0.31
-0.02
0.17
0.26
0.28
0.31
0.38
0.48
0.56
0.56
0.47
0.35
0.26
0.23
0.27
0.32
0.35
0.33
0.27
0.20
0.10
-0.01
-0.15
-0.28
-0.37
-0.38
-0.26
-0.02
0.29
0.60
0.82
0.90
0.82
0.60
0.30
-0.00
-0.26
-0.45
-0.57
-0.62
-0.61
-0.54
-0.42
-0.25
-0.08
0.04
0.10
0.09
0.09
0.14
0.28
0.48
0.64
0.67
0.48
0.09
-0.39
-0.80
-0.97
-0.82
-0.39
0.16
0.66
0.93
0.93
0.70
0.39
0.14
0.05
0.11
0.29
0.49
0.68
0.81
0.84
0.72
0.37
-0.19
-0.87
-1.50
-1.85
-1.82
-1.43
-0.83
-0.26
0.11
0.23
0.14
-0.03
-0.16
-0.20
-0.14
-0.00
0.18
0.39
0.58
0.72
0.77
0.72
0.59
0.43
0.29
0.21
0.20
0.22
0.27
0.34
0.42
0.50
0.56
0.57
0.52
0.42
0.31
0.22
0.16
0.08
-0.06
-0.32
-0.66
-1.04
-1.33
-1.47
-1.40
-1.14
-0.77
-0.37
-0.02
0.25
0.43
0.54
0.57
0.50
0.33
0.08
-0.19
-0.37
-0.39
-0.21
0.11
0.42
0.60
0.58
0.40
0.18
0.08
0.19
0.50
0.90
1.26
1.46
1.49
1.41
1.33
1.34
1.41
1.49
1.45
1.27
0.99
0.78
0.80
1.17
1.87
2.71
3.40
3.68
3.44
2.80
2.12
1.80
2.15
3.20
4.67
6.10
7.05
7.34
7.12
6.86
7.10
8.17
10.05
12.30
14.25
15.31
15.33
14.74
14.45
15.38
18.02
22.06
26.41
29.75
31.09
30.31
28.25
26.33
25.91
27.76
31.94
37.90
44.64
50.57
53.49
50.81
40.31
21.24
-4.89
-34.50
-62.98
-86.40
-102.66
-111.83
-115.42
-115.25
-112.69
-108.64
-103.91
-99.76
-97.97
-100.28
-107.58
-119.02
-131.44
-139.70
-137.93
-121.67
-90.07
-46.97
-0.03
41.83
71.70
87.06
89.97
85.28
77.89
70.77
64.49
58.34
51.77
45.34
40.42
38.21
38.82
41.06
42.93
42.66
39.55
34.22
28.25
23.38
20.72
20.32
21.25
22.11
21.74
19.67
16.34
12.73
9.87
8.37
8.17
8.64
8.99
8.64
7.47
5.80
4.15
2.98
2.48
2.52
2.82
3.04
2.98
2.56
1.87
1.11
0.46
0.10
0.07
0.33
0.70
1.00
1.08
0.92
0.60
0.23
-0.11
-0.39
-0.64
-0.87
-1.03
-1.05
-0.88
-0.55
-0.15
0.17
0.30
0.24
0.08
-0.10
-0.22
-0.29
-0.34
-0.42
-0.53
-0.63
-0.69
-0.67
-0.60
-0.50
-0.40
-0.31
-0.26
-0.26
-0.35
-0.54
-0.77
-0.95
-0.98
-0.81
-0.49
-0.14
0.12
0.23
0.20
0.13
0.10
0.13
0.17
0.13
-0.02
-0.25
-0.46
-0.56
-0.46
-0.18
0.22
0.63
0.95
1.13
1.14
1.03
0.85
0.68
0.54
0.45
0.35
0.23
0.11
0.05
0.13
0.38
0.72
1.03
1.19
1.12
0.83
0.44
0.05
-0.26
-0.46
-0.57
-0.59
-0.52
-0.35
-0.14
0.02
0.03
-0.17
-0.51
-0.87
-1.11
-1.17
-1.07
-0.91
-0.77
-0.68
-0.60
-0.47
-0.27
-0.05
0.10
0.14
0.06
-0.07
-0.17
-0.16
-0.05
0.13
0.28
0.37
0.34
0.24
0.11
0.02
0.02
0.07
0.13
0.13
0.04
-0.12
-0.29
-0.38
-0.34
-0.16
0.12
0.42
0.66
0.76
0.66
0.37
-0.07
-0.52
-0.88
-1.05
-0.99
-0.76
-0.44
-0.12
0.15
0.30
0.32
0.20
-0.02
-0.25
-0.39
-0.40
-0.25
0.01
0.29
0.52
0.67
0.76
0.77
0.71
0.53
0.23
-0.13
-0.47
-0.68
-0.73
-0.61
-0.40
-0.15
0.05
0.18
0.23
0.20
0.09
-0.08
-0.28
-0.48
-0.63
-0.70
-0.64
-0.43
-0.10
0.26
0.56
0.67
0.60
0.37
0.12
-0.07
-0.14
-0.13
-0.09
-0.04
0.02
0.13
0.32
0.57
0.80
0.93
0.93
0.80
0.61
0.41
0.23
0.05
-0.13
-0.31
-0.45
-0.51
-0.48
-0.37
-0.27
-0.21
-0.23
-0.30
-0.36
-0.37
-0.31
-0.22
-0.12
-0.05
-0.01
0.02
0.03
0.03
0.01
-0.06
-0.16
-0.26
-0.33
-0.34
-0.32
-0.27
-0.21
-0.17
-0.14
-0.13
-0.15
-0.22
-0.31
-0.40
-0.43
-0.35
-0.19
-0.00
0.15
0.23
0.26
0.30
0.40
0.53
0.65
0.67
0.56
0.35
0.09
-0.12
-0.22
-0.19
-0.07
0.12
0.30
0.47
0.60
0.70
0.80
0.90
0.98
1.03
1.01
0.89
0.68
0.42
0.19
0.06
0.10
0.31
0.68
1.07
1.36
1.40
1.15
0.66
0.07
-0.42
-0.71
-0.78
-0.71
-0.59
-0.48
-0.41
-0.33
-0.24
-0.12
-0.01
0.10
0.20
0.33
0.53
0.80
1.11
1.43
1.74
2.03
2.36
2.76
3.23
3.73
4.18
4.51
4.71
4.86
5.08
5.52
6.22
7.09
7.95
8.54
8.76
8.69
8.59
8.85
9.74
11.29
13.27
15.24
16.80
17.72
18.03
17.95
17.75
17.60
17.46
17.16
16.47
15.30
13.85
12.62
12.39
13.91
17.54
22.98
29.25
34.95
38.91
40.65
40.62
40.01
40.30
42.68
47.86
55.88
65.90
75.88
82.53
81.84
70.55
47.77
16.08
-18.89
-50.42
-73.27
-85.52
-88.77
-86.61
-82.55
-78.45
-74.39
-69.73
-64.21
-58.57
-54.04
-51.45
-50.64
-50.42
-49.36
-46.58
-42.18
-37.18
-32.93
-30.40
-29.81
-30.64
-31.92
-32.72
-32.52
-31.22
-29.17
-26.83
-24.64
-22.85
-21.43
-20.12
-18.57
-16.47
-13.78
-10.80
-8.05
-6.08
-5.20
-5.38
-6.28
-7.47
-8.64
-9.73
-10.97
-12.69
-15.16
-18.42
-22.11
-25.60
-28.08
-28.85
-27.54
-24.36
-20.00
-15.45
-11.63
-9.11
-7.91
-7.61
-7.48
-6.85
-5.34
-2.96
-0.06
2.85
5.36
7.29
8.65
9.62
10.29
10.69
10.77
10.50
9.90
9.05
8.07
7.14
6.60
6.87
8.37
11.30
15.50
20.42
25.32
29.52
32.65
34.64
35.61
35.70
34.98
33.53
31.49
29.22
27.15
25.66
24.92
24.78
24.89
24.85
24.39
23.49
22.37
21.40
20.94
21.17
22.03
23.26
24.45
25.33
25.78
25.99
26.29
27.05
28.47
30.49
32.84
35.09
36.91
38.20
39.10
39.99
41.34
43.60
47.09
51.81
57.30
62.48
65.70
65.14
59.34
47.90
31.67
12.67
-6.50
-23.45
-36.53
-45.05
-49.15
-49.48
-46.92
-42.52
-37.47
-33.05
-30.34
-29.92
-31.66
-34.74
-37.99
-40.34
-41.21
-40.58
-38.88
-36.68
-34.42
-32.33
-30.45
-28.72
-27.09
-25.47
-23.82
-22.11
-20.36
-18.66
-17.10
-15.73
-14.51
-13.33
-12.11
-10.84
-9.59
-8.49
-7.59
-6.89
-6.31
-5.78
-5.29
-4.86
-4.52
-4.26
-4.00
-3.64
-3.15
-2.60
-2.10
-1.80
-1.72
-1.83
-1.94
-1.91
-1.65
-1.22
-0.76
-0.45
-0.34
-0.41
-0.53
-0.60
-0.57
-0.47
-0.39
-0.36
-0.38
-0.42
-0.46
-0.51
-0.62
-0.83
-1.14
-1.48
-1.79
-1.98
-2.05
-2.02
-1.97
-1.97
-2.06
-2.26
-2.53
-2.83
-3.10
-3.29
-3.38
-3.41
-3.47
-3.65
-4.03
-4.57
-5.13
-5.54
-5.67
-5.52
-5.23
-5.01
-5.01
-5.27
-5.72
-6.23
-6.70
-6.98
-6.85
-6.02
-4.21
-1.37
2.18
5.82
8.81
10.68
11.36
11.19
10.72
10.36
10.24
10.24
10.12
9.74
9.11
8.37
7.66
7.11
6.70
6.41
6.14
5.85
5.57
5.38
5.37
5.58
5.95
6.33
6.59
6.60
6.41
6.14
6.00
6.13
6.59
7.30
8.10
8.80
9.25
9.36
9.14
8.63
7.94
7.14
6.31
5.53
4.84
4.29
3.88
3.56
3.27
2.95
2.60
2.25
1.94
1.67
1.36
0.86
0.03
-1.19
-2.76
-4.53
-6.34
-8.03
-9.52
-10.78
-11.80
-12.55
-12.97
-13.02
-12.68
-12.00
-11.06
-10.00
-8.97
-8.08
-7.35
-6.78
-6.29
-5.77
-5.15
-4.44
-3.71
-3.09
-2.69
-2.56
-2.65
-2.80
-2.85
-2.65
-2.19
-1.57
-0.97
-0.54
-0.39
-0.48
-0.71
-0.91
-1.02
-1.01
-0.96
-0.96
-1.06
-1.21
-1.35
-1.39
-1.31
-1.16
-1.02
-0.96
-0.97
-0.98
-0.92
-0.76
-0.56
-0.44
-0.45
-0.54
-0.60
-0.50
-0.21
0.20
0.60
0.88
1.03
1.11
1.23
1.44
1.66
1.79
1.71
1.42
0.98
0.56
0.29
0.24
0.36
0.55
0.70
0.72
0.61
0.45
0.32
0.29
0.38
0.55
0.70
0.75
0.65
0.42
0.13
-0.12
-0.25
-0.24
-0.11
0.06
0.19
0.21
0.10
-0.08
-0.24
-0.30
-0.21
-0.01
0.26
0.51
0.67
0.71
0.65
0.48
0.25
-0.02
-0.31
-0.58
-0.77
-0.86
-0.80
-0.62
-0.33
-0.01
0.29
0.51
0.61
0.58
0.44
0.27
0.15
0.15
0.29
0.51
0.72
0.81
0.73
0.47
0.09
-0.32
-0.65
-0.87
-0.95
-0.92
-0.83
-0.74
-0.66
-0.61
-0.55
-0.44
-0.30
-0.14
-0.04
-0.02
-0.08
-0.20
-0.30
-0.32
-0.23
-0.08
0.05
0.09
-0.00
-0.19
-0.38
-0.44
-0.30
0.02
0.39
0.68
0.76
0.63
0.35
0.03
-0.22
-0.36
-0.40
-0.33
-0.15
0.12
0.45
0.75
0.93
0.90
0.65
0.26
-0.14
-0.41
-0.43
-0.19
0.24
0.72
1.05
1.13
0.92
0.52
0.10
-0.17
-0.22
-0.05
0.23
0.51
0.70
0.78
0.75
0.63
0.46
0.25
0.04
-0.14
-0.24
-0.26
-0.20
-0.11
-0.06
-0.09
-0.22
-0.41
-0.61
-0.74
-0.75
-0.65
-0.50
-0.39
-0.40
-0.52
-0.69
-0.77
-0.66
-0.33
0.11
0.50
0.70
0.63
0.33
-0.08
-0.42
-0.59
-0.54
-0.32
-0.04
0.18
0.26
0.17
0.01
-0.14
-0.16
-0.04
0.16
0.34
0.38
0.25
0.01
-0.22
-0.34
-0.33
-0.21
-0.09
-0.03
-0.06
-0.15
-0.22
-0.23
-0.17
-0.08
-0.04
-0.11
-0.30
-0.54
-0.70
-0.69
-0.50
-0.20
0.08
0.26
0.29
0.24
0.21
0.26
0.38
0.51
0.53
0.40
0.14
-0.15
-0.32
-0.27
0.00
0.43
0.87
1.14
1.13
0.81
0.27
-0.33
-0.80
-1.00
-0.90
-0.54
-0.05
0.42
0.74
0.85
0.73
0.44
0.06
-0.33
-0.68
-0.95
-1.12
-1.17
-1.05
-0.76
-0.35
0.02
0.21
0.12
-0.23
-0.68
-1.00
-1.05
-0.83
-0.43
0.00
0.36
0.60
0.72
0.75
0.67
0.51
0.34
0.24
0.29
0.50
0.78
0.99
1.02
0.88
0.65
0.47
0.41
0.46
0.53
0.52
0.40
0.21
0.03
-0.05
-0.02
0.05
0.06
-0.04
-0.24
-0.45
-0.57
-0.52
-0.31
-0.03
0.21
0.33
0.28
0.09
-0.19
-0.46
-0.65
-0.70
-0.57
-0.29
0.07
0.40
0.59
0.58
0.35
-0.03
-0.48
-0.90
-1.21
-1.35
-1.31
-1.11
-0.76
-0.34
0.08
0.42
0.64
0.70
0.64
0.53
0.41
0.34
0.31
0.33
0.36
0.40
0.43
0.42
0.35
0.17
-0.11
-0.46
-0.77
-0.99
-1.05
-1.00
-0.89
-0.80
-0.73
-0.64
-0.44
-0.10
0.33
0.72
0.92
0.86
0.61
0.31
0.11
0.08
0.18
0.28
0.28
0.17
0.01
-0.09
-0.07
0.06
0.23
0.37
0.46
0.52
0.60
0.70
0.76
0.71
0.51
0.19
-0.15
-0.42
-0.55
-0.57
-0.54
-0.52
-0.52
-0.53
-0.47
-0.32
-0.11
0.12
0.32
0.45
0.51
0.50
0.45
0.38
0.34
0.34
0.36
0.35
0.28
0.12
-0.07
-0.21
-0.20
-0.05
0.18
0.38
0.45
0.35
0.14
-0.08
-0.23
-0.26
-0.18
-0.02
0.16
0.29
0.28
0.08
-0.30
-0.77
-1.21
-1.46
-1.46
-1.25
-0.98
-0.77
-0.72
-0.79
-0.85
-0.75
-0.39
0.18
0.82
1.30
1.46
1.30
0.91
0.47
0.13
-0.07
-0.15
-0.13
-0.04
0.14
0.41
0.68
0.83
0.74
0.37
-0.15
-0.60
-0.78
-0.62
-0.23
0.21
0.50
0.58
0.48
0.30
0.12
-0.02
-0.16
-0.31
-0.46
-0.56
-0.56
-0.44
-0.23
0.00
0.18
0.26
0.25
0.16
0.06
-0.02
-0.05
-0.03
0.04
0.17
0.36
0.61
0.86
1.05
1.08
0.89
0.48
-0.05
-0.56
-0.89
-0.97
-0.81
-0.51
-0.22
-0.04
0.02
0.02
0.03
0.11
0.22
0.32
0.32
0.19
-0.04
-0.30
-0.54
-0.75
-0.90
-1.01
-1.05
-1.00
-0.85
-0.62
-0.36
-0.12
0.06
0.15
0.19
0.22
0.30
0.44
0.62
0.78
0.82
0.70
0.43
0.13
-0.10
-0.16
-0.04
0.22
0.49
0.69
0.74
0.65
0.44
0.15
-0.16
-0.41
-0.55
-0.54
-0.40
-0.19
0.00
0.10
0.09
-0.00
-0.11
-0.19
-0.19
-0.12
-0.01
0.10
0.21
0.31
0.40
0.45
0.45
0.36
0.15
-0.13
-0.41
-0.58
-0.56
-0.33
0.04
0.42
0.68
0.75
0.65
0.45
0.25
0.12
0.10
0.16
0.28
0.40
0.48
0.49
0.42
0.26
0.05
-0.18
-0.35
-0.42
-0.38
-0.25
-0.09
0.02
0.01
-0.16
-0.44
-0.73
-0.91
-0.86
-0.59
-0.15
0.28
0.57
0.63
0.49
0.23
-0.02
-0.19
-0.28
-0.32
-0.34
-0.36
-0.36
-0.33
-0.24
-0.14
-0.06
-0.04
-0.07
-0.14
-0.18
-0.17
-0.10
0.05
0.24
0.44
0.62
0.74
0.76
0.66
0.47
0.23
0.04
-0.06
-0.03
0.07
0.16
0.17
0.06
-0.15
-0.40
-0.65
-0.87
-1.03
-1.14
-1.14
-1.02
-0.77
-0.42
-0.06
0.22
0.35
0.33
0.21
0.12
0.13
0.30
0.57
0.83
0.97
0.97
0.85
0.67
0.47
0.24
-0.03
-0.34
-0.61
-0.75
-0.69
-0.42
-0.04
0.31
0.54
0.61
0.56
0.41
0.20
-0.06
-0.35
-0.62
-0.81
-0.87
-0.79
-0.55
-0.19
0.22
0.60
0.86
0.91
0.71
0.31
-0.21
-0.69
-1.03
-1.17
-1.13
-0.96
-0.73
-0.46
-0.18
0.15
0.53
0.93
1.25
1.41
1.33
1.02
0.59
0.20
-0.00
0.04
0.26
0.51
0.63
0.54
0.26
-0.10
-0.42
-0.62
-0.67
-0.62
-0.53
-0.45
-0.39
-0.30
-0.17
0.00
0.18
0.31
0.32
0.21
0.01
-0.20
-0.35
-0.39
-0.32
-0.20
-0.10
-0.07
-0.11
-0.19
-0.26
-0.25
-0.18
-0.05
0.09
0.21
0.26
0.24
0.13
-0.04
-0.23
-0.39
-0.50
-0.51
-0.43
-0.26
-0.02
0.24
0.46
0.61
0.64
0.59
0.47
0.32
0.17
0.04
-0.05
-0.11
-0.11
-0.05
0.06
0.20
0.32
0.38
0.36
0.26
0.07
-0.17
-0.40
-0.58
-0.66
-0.61
-0.45
-0.21
0.04
0.24
0.33
0.31
0.20
0.05
-0.09
-0.16
-0.17
-0.14
-0.12
-0.12
-0.14
-0.16
-0.16
-0.14
-0.10
-0.07
-0.03
0.01
0.08
0.18
0.29
0.36
0.38
0.34
0.23
0.09
-0.07
-0.21
-0.31
-0.36
-0.33
-0.23
-0.06
0.15
0.39
0.61
0.79
0.86
0.79
0.58
0.26
-0.09
-0.36
-0.51
-0.54
-0.52
-0.50
-0.53
-0.59
-0.61
-0.54
-0.37
-0.14
0.06
0.16
0.15
0.06
-0.04
-0.10
-0.08
0.02
0.21
0.44
0.66
0.80
0.81
0.64
0.34
-0.03
-0.35
-0.51
-0.48
-0.28
-0.00
0.26
0.44
0.50
0.44
0.27
0.00
-0.30
-0.58
-0.74
-0.71
-0.50
-0.17
0.16
0.40
0.51
0.51
0.46
0.43
0.42
0.39
0.31
0.13
-0.15
-0.48
-0.80
-1.03
-1.09
-0.95
-0.60
-0.13
0.36
0.75
0.93
0.87
0.57
0.12
-0.35
-0.71
-0.87
-0.80
-0.56
-0.27
-0.06
0.04
0.04
0.00
-0.03
-0.03
-0.05
-0.12
-0.22
-0.31
-0.29
-0.11
0.22
0.60
0.94
1.12
1.13
0.97
0.72
0.45
0.20
0.03
-0.09
-0.14
-0.15
-0.13
-0.10
-0.11
-0.16
-0.26
-0.38
-0.50
-0.56
-0.55
-0.49
-0.42
-0.37
-0.36
-0.36
-0.35
-0.33
-0.29
-0.24
-0.19
-0.12
0.00
0.20
0.47
0.76
1.00
1.10
1.01
0.76
0.45
0.20
0.11
0.20
0.40
0.62
0.76
0.77
0.66
0.47
0.25
0.07
-0.07
-0.17
-0.24
-0.31
-0.38
-0.45
-0.48
-0.47
-0.40
-0.29
-0.21
-0.21
-0.32
-0.51
-0.68
-0.72
-0.55
-0.19
0.23
0.59
0.76
0.71
0.50
0.24
0.02
-0.10
-0.14
-0.18
-0.25
-0.36
-0.45
-0.47
-0.39
-0.24
-0.08
0.02
0.03
-0.03
-0.12
-0.20
-0.25
-0.30
-0.35
-0.41
-0.43
-0.34
-0.15
0.12
0.38
0.56
0.62
0.57
0.46
0.31
0.16
0.01
-0.12
-0.21
-0.26
-0.24
-0.19
-0.15
-0.16
-0.24
-0.34
-0.39
-0.34
-0.16
0.14
0.48
0.76
0.90
0.84
0.60
0.25
-0.10
-0.36
-0.44
-0.36
-0.16
0.05
0.20
0.23
0.16
0.02
-0.13
-0.27
-0.35
-0.39
-0.35
-0.25
-0.10
0.06
0.18
0.23
0.20
0.12
-0.01
-0.16
-0.33
-0.49
-0.60
-0.59
-0.47
-0.29
-0.13
-0.07
-0.13
-0.26
-0.35
-0.32
-0.14
0.14
0.46
0.73
0.91
0.94
0.82
0.58
0.31
0.11
0.04
0.08
0.15
0.13
-0.01
-0.25
-0.47
-0.55
-0.48
-0.29
-0.12
-0.04
-0.06
-0.13
-0.17
-0.13
0.00
0.19
0.40
0.60
0.76
0.84
0.81
0.67
0.45
0.23
0.11
0.13
0.29
0.52
0.73
0.80
0.72
0.47
0.12
-0.23
-0.51
-0.65
-0.67
-0.60
-0.53
-0.50
-0.55
-0.61
-0.64
-0.56
-0.39
-0.16
0.03
0.12
0.08
-0.02
-0.11
-0.10
0.02
0.19
0.33
0.37
0.27
0.08
-0.11
-0.22
-0.25
-0.22
-0.20
-0.23
-0.28
-0.32
-0.29
-0.16
0.02
0.18
0.23
0.16
0.00
-0.16
-0.25
-0.21
-0.05
0.17
0.38
0.50
0.50
0.38
0.18
-0.03
-0.17
-0.19
-0.11
0.05
0.22
0.32
0.32
0.22
0.08
-0.05
-0.12
-0.12
-0.06
-0.01
0.03
0.02
-0.02
-0.12
-0.26
-0.44
-0.61
-0.70
-0.65
-0.45
-0.13
0.22
0.48
0.60
0.57
0.46
0.34
0.28
0.30
0.34
0.34
0.23
-0.00
-0.31
-0.57
-0.68
-0.57
-0.29
0.06
0.35
0.51
0.53
0.48
0.43
0.42
0.42
0.36
0.16
-0.16
-0.52
-0.82
-0.94
-0.85
-0.60
-0.30
-0.05
0.11
0.17
0.16
0.07
-0.13
-0.46
-0.85
-1.15
-1.17
-0.81
-0.10
0.73
1.41
1.70
1.56
1.14
0.65
0.28
0.06
-0.05
-0.15
-0.27
-0.37
-0.36
-0.20
0.07
0.31
0.38
0.22
-0.13
-0.57
-0.96
-1.18
-1.18
-0.98
-0.65
-0.28
0.03
0.21
0.25
0.20
0.15
0.21
0.41
0.67
0.87
0.89
0.72
0.43
0.18
0.06
0.09
0.20
0.29
0.30
0.23
0.11
-0.01
-0.12
-0.22
-0.30
-0.32
-0.25
-0.10
0.06
0.16
0.15
0.07
0.01
0.04
0.16
0.27
0.28
0.13
-0.14
-0.38
-0.48
-0.38
-0.14
0.13
0.32
0.36
0.28
0.14
-0.01
-0.13
-0.26
-0.40
-0.57
-0.72
-0.79
-0.74
-0.57
-0.36
-0.19
-0.12
-0.13
-0.15
-0.10
0.05
0.26
0.44
0.51
0.47
0.41
0.43
0.58
0.79
0.94
0.90
0.61
0.15
-0.32
-0.65
-0.79
-0.74
-0.60
-0.44
-0.31
-0.18
-0.03
0.16
0.33
0.46
0.51
0.49
0.42
0.37
0.36
0.40
0.47
0.54
0.57
0.53
0.41
0.21
-0.05
-0.35
-0.64
-0.89
-1.05
-1.07
-0.91
-0.56
-0.06
0.49
0.97
1.24
1.25
1.02
0.66
0.32
0.06
-0.08
-0.15
-0.20
-0.28
-0.39
-0.48
-0.50
-0.45
-0.35
-0.23
-0.16
-0.18
-0.27
-0.39
-0.48
-0.46
-0.34
-0.13
0.09
0.24
0.26
0.14
-0.09
-0.35
-0.57
-0.67
-0.60
-0.37
-0.04
0.26
0.45
0.48
0.41
0.33
0.30
0.35
0.39
0.33
0.10
-0.29
-0.74
-1.11
-1.29
-1.24
-0.98
-0.62
-0.28
-0.03
0.11
0.19
0.27
0.43
0.63
0.82
0.90
0.84
0.66
0.47
0.35
0.33
0.37
0.39
0.34
0.22
0.07
-0.07
-0.20
-0.36
-0.57
-0.78
-0.92
-0.91
-0.75
-0.48
-0.22
-0.02
0.11
0.20
0.29
0.36
0.41
0.41
0.39
0.41
0.50
0.64
0.76
0.77
0.65
0.45
0.28
0.20
0.21
0.25
0.22
0.11
-0.07
-0.22
-0.30
-0.32
-0.33
-0.40
-0.56
-0.77
-0.92
-0.95
-0.81
-0.52
-0.16
0.20
0.45
0.53
0.45
0.22
-0.05
-0.26
-0.33
-0.24
-0.04
0.18
0.32
0.36
0.31
0.23
0.20
0.21
0.27
0.35
0.43
0.51
0.58
0.60
0.53
0.35
0.08
-0.21
-0.44
-0.54
-0.55
-0.52
-0.52
-0.58
-0.63
-0.63
-0.54
-0.39
-0.23
-0.12
-0.04
0.04
0.13
0.24
0.34
0.39
0.40
0.37
0.34
0.29
0.23
0.18
0.13
0.12
0.11
0.06
-0.08
-0.31
-0.58
-0.79
-0.82
-0.67
-0.39
-0.11
0.08
0.12
0.07
-0.00
-0.06
-0.06
-0.04
-0.00
0.02
0.02
0.01
0.00
0.04
0.13
0.28
0.44
0.58
0.66
0.65
0.58
0.49
0.44
0.45
0.48
0.49
0.46
0.39
0.28
0.17
0.04
-0.08
-0.20
-0.29
-0.33
-0.34
-0.34
-0.39
-0.51
-0.65
-0.75
-0.72
-0.54
-0.28
-0.06
0.04
0.01
-0.07
-0.09
0.01
0.22
0.45
0.60
0.63
0.56
0.47
0.38
0.32
0.25
0.10
-0.13
-0.42
-0.68
-0.85
-0.85
-0.72
-0.51
-0.29
-0.14
-0.08
-0.08
-0.11
-0.09
-0.01
0.15
0.32
0.43
0.42
0.28
0.07
-0.12
-0.18
-0.09
0.11
0.32
0.41
0.33
0.09
-0.23
-0.55
-0.80
-0.92
-0.94
-0.85
-0.68
-0.43
-0.12
0.23
0.59
0.88
1.06
1.09
0.97
0.73
0.48
0.31
0.26
0.31
0.38
0.40
0.31
0.14
-0.05
-0.19
-0.23
-0.18
-0.09
-0.04
-0.11
-0.30
-0.56
-0.77
-0.83
-0.67
-0.33
0.08
0.42
0.62
0.68
0.67
0.66
0.67
0.65
0.53
0.27
-0.09
-0.44
-0.65
-0.69
-0.59
-0.42
-0.28
-0.20
-0.18
-0.18
-0.18
-0.17
-0.18
-0.21
-0.29
-0.40
-0.52
-0.60
-0.59
-0.44
-0.13
0.24
0.57
0.72
0.68
0.50
0.32
0.28
0.36
0.50
0.55
0.41
0.11
-0.22
-0.41
-0.34
-0.03
0.37
0.69
0.76
0.56
0.15
-0.27
-0.54
-0.58
-0.39
-0.13
0.08
0.14
0.04
-0.12
-0.24
-0.26
-0.17
-0.01
0.18
0.36
0.50
0.55
0.46
0.22
-0.11
-0.42
-0.58
-0.54
-0.33
-0.06
0.14
0.16
0.02
-0.24
-0.52
-0.75
-0.86
-0.82
-0.59
-0.21
0.27
0.71
0.98
1.00
0.75
0.31
-0.20
-0.65
-0.94
-1.03
-0.92
-0.65
-0.30
0.04
0.31
0.44
0.44
0.34
0.19
0.06
-0.01
-0.01
0.08
0.22
0.39
0.54
0.63
0.65
0.61
0.58
0.59
0.64
0.66
0.59
0.36
0.03
-0.31
-0.52
-0.51
-0.29
0.05
0.40
0.66
0.77
0.72
0.52
0.20
-0.21
-0.61
-0.92
-1.03
-0.93
-0.63
-0.25
0.10
0.32
0.38
0.30
0.18
0.08
0.04
0.07
0.13
0.14
0.10
-0.00
-0.15
-0.31
-0.46
-0.59
-0.66
-0.64
-0.53
-0.37
-0.22
-0.18
-0.31
-0.59
-0.93
-1.19
-1.25
-1.06
-0.66
-0.18
0.24
0.50
0.57
0.50
0.40
0.35
0.37
0.42
0.41
0.30
0.14
0.02
0.02
0.18
0.42
0.63
0.70
0.64
0.53
0.48
0.52
0.61
0.63
0.50
0.24
-0.03
-0.18
-0.17
-0.03
0.11
0.14
0.04
-0.10
-0.17
-0.11
0.08
0.32
0.52
0.64
0.69
0.70
0.66
0.57
0.37
0.07
-0.27
-0.57
-0.73
-0.75
-0.72
-0.73
-0.88
-1.14
-1.42
-1.59
-1.56
-1.36
-1.03
-0.68
-0.34
0.01
0.38
0.76
1.05
1.16
1.02
0.67
0.25
-0.07
-0.19
-0.13
0.03
0.18
0.25
0.26
0.29
0.37
0.51
0.65
0.71
0.67
0.52
0.32
0.13
-0.03
-0.15
-0.26
-0.38
-0.48
-0.50
-0.40
-0.13
0.27
0.71
1.06
1.23
1.14
0.78
0.25
-0.33
-0.79
-1.02
-0.96
-0.65
-0.22
0.16
0.32
0.22
-0.10
-0.52
-0.88
-1.08
-1.07
-0.88
-0.59
-0.28
-0.05
0.05
0.02
-0.11
-0.24
-0.24
-0.08
0.27
0.72
1.15
1.46
1.57
1.48
1.23
0.88
0.49
0.13
-0.17
-0.33
-0.32
-0.13
0.19
0.54
0.83
0.96
0.93
0.84
0.82
0.94
1.22
1.51
1.61
1.34
0.64
-0.37
-1.42
-2.22
-2.55
-2.37
-1.80
-1.07
-0.39
0.12
0.46
0.70
0.87
0.99
0.98
0.77
0.34
-0.22
-0.78
-1.20
-1.40
-1.37
-1.20
-0.98
-0.81
-0.74
-0.78
-0.91
-1.05
-1.07
-0.88
-0.44
0.18
0.77
1.13
1.10
0.67
0.01
-0.64
-1.05
-1.16
-1.01
-0.77
-0.54
-0.39
-0.25
-0.06
0.21
0.51
0.74
0.80
0.66
0.36
0.01
-0.25
-0.35
-0.24
0.02
0.33
0.59
0.70
0.66
0.48
0.25
0.03
-0.14
-0.23
-0.24
-0.21
-0.17
-0.16
-0.18
-0.22
-0.25
-0.21
-0.08
0.12
0.35
0.53
0.63
0.66
0.67
0.69
0.76
0.85
0.93
0.91
0.78
0.53
0.21
-0.11
-0.37
-0.52
-0.57
-0.55
-0.50
-0.44
-0.37
-0.29
-0.19
-0.09
-0.04
-0.10
-0.24
-0.42
-0.58
-0.66
-0.66
-0.58
-0.45
-0.27
-0.05
0.18
0.36
0.39
0.22
-0.13
-0.53
-0.80
-0.78
-0.43
0.13
0.70
1.06
1.12
0.90
0.52
0.12
-0.19
-0.37
-0.42
-0.37
-0.25
-0.08
0.08
0.19
0.19
0.07
-0.14
-0.36
-0.48
-0.44
-0.21
0.14
0.51
0.81
0.97
0.97
0.82
0.56
0.23
-0.12
-0.41
-0.61
-0.69
-0.63
-0.48
-0.26
-0.02
0.20
0.39
0.50
0.51
0.40
0.20
-0.07
-0.34
-0.56
-0.69
-0.71
-0.63
-0.51
-0.37
-0.22
-0.06
0.12
0.34
0.57
0.76
0.86
0.78
0.50
0.07
-0.43
-0.85
-1.10
-1.13
-0.99
-0.75
-0.51
-0.32
-0.20
-0.13
-0.07
-0.02
0.02
0.03
0.02
-0.02
-0.05
-0.06
-0.01
0.11
0.31
0.55
0.78
0.94
1.01
0.98
0.89
0.77
0.64
0.54
0.44
0.35
0.27
0.20
0.13
0.05
-0.04
-0.12
-0.17
-0.15
-0.06
0.09
0.22
0.26
0.15
-0.12
-0.49
-0.83
-1.05
-1.10
-0.98
-0.77
-0.57
-0.45
-0.39
-0.38
-0.35
-0.28
-0.16
0.01
0.21
0.44
0.65
0.77
0.75
0.60
0.38
0.21
0.16
0.24
0.34
0.37
0.24
-0.01
-0.25
-0.37
-0.29
-0.10
0.08
0.14
0.03
-0.17
-0.33
-0.36
-0.22
0.04
0.34
0.58
0.72
0.76
0.71
0.57
0.31
-0.08
-0.58
-1.10
-1.52
-1.70
-1.58
-1.18
-0.57
0.10
0.65
0.96
0.97
0.73
0.37
0.05
-0.10
-0.05
0.17
0.47
0.72
0.83
0.75
0.51
0.14
-0.25
-0.59
-0.79
-0.83
-0.73
-0.55
-0.35
-0.16
-0.00
0.11
0.14
0.05
-0.18
-0.50
-0.78
-0.91
-0.80
-0.48
-0.08
0.20
0.24
0.06
-0.21
-0.35
-0.23
0.14
0.60
0.95
1.04
0.85
0.50
0.16
-0.06
-0.13
-0.09
-0.03
-0.00
-0.01
0.00
0.09
0.26
0.48
0.68
0.78
0.73
0.54
0.28
0.04
-0.12
-0.15
-0.12
-0.09
-0.13
-0.24
-0.40
-0.59
-0.81
-1.03
-1.23
-1.33
-1.28
-1.04
-0.67
-0.28
0.00
0.13
0.14
0.12
0.18
0.32
0.49
0.59
0.58
0.44
0.24
0.04
-0.09
-0.09
0.05
0.34
0.70
1.03
1.20
1.13
0.81
0.31
-0.21
-0.61
-0.77
-0.69
-0.42
-0.10
0.16
0.25
0.20
0.07
-0.03
-0.04
0.01
0.04
-0.05
-0.26
-0.51
-0.67
-0.63
-0.36
0.02
0.37
0.56
0.52
0.32
0.07
-0.13
-0.19
-0.12
0.03
0.20
0.39
0.58
0.81
1.06
1.28
1.37
1.26
0.95
0.50
-0.00
-0.43
-0.71
-0.79
-0.69
-0.45
-0.15
0.11
0.27
0.28
0.14
-0.11
-0.44
-0.80
-1.14
-1.37
-1.40
-1.16
-0.65
0.01
0.62
0.99
1.03
0.79
0.44
0.17
0.10
0.25
0.51
0.79
0.96
0.98
0.84
0.58
0.24
-0.12
-0.45
-0.72
-0.90
-1.01
-1.02
-0.92
-0.71
-0.41
-0.09
0.17
0.27
0.22
0.06
-0.13
-0.30
-0.45
-0.59
-0.72
-0.81
-0.81
-0.69
-0.48
-0.23
-0.04
0.06
0.06
0.01
-0.03
0.01
0.14
0.34
0.58
0.77
0.84
0.76
0.56
0.32
0.13
0.09
0.17
0.31
0.41
0.40
0.30
0.20
0.19
0.33
0.57
0.77
0.84
0.71
0.45
0.18
-0.01
-0.08
-0.09
-0.10
-0.14
-0.22
-0.27
-0.29
-0.29
-0.32
-0.42
-0.60
-0.78
-0.88
-0.87
-0.74
-0.55
-0.38
-0.28
-0.25
-0.25
-0.25
-0.21
-0.16
-0.12
-0.15
-0.26
-0.40
-0.51
-0.52
-0.40
-0.17
0.11
0.36
0.55
0.63
0.61
0.49
0.27
-0.01
-0.31
-0.56
-0.71
-0.74
-0.68
-0.60
-0.54
-0.51
-0.46
-0.33
-0.09
0.23
0.54
0.75
0.82
0.77
0.66
0.55
0.46
0.36
0.25
0.13
0.05
0.07
0.20
0.41
0.62
0.72
0.65
0.42
0.10
-0.20
-0.39
-0.44
-0.36
-0.24
-0.15
-0.14
-0.19
-0.25
-0.23
-0.13
0.06
0.24
0.34
0.31
0.14
-0.08
-0.25
-0.31
-0.24
-0.11
-0.01
-0.00
-0.10
-0.26
-0.38
-0.42
-0.34
-0.16
0.07
0.27
0.41
0.44
0.38
0.27
0.16
0.12
0.13
0.16
0.17
0.16
0.18
0.30
0.54
0.85
1.09
1.14
0.93
0.57
0.22
0.04
0.10
0.36
0.65
0.84
0.87
0.72
0.42
0.03
-0.42
-0.85
-1.17
-1.31
-1.24
-1.05
-0.87
-0.81
-0.89
-1.02
-1.04
-0.86
-0.50
-0.10
0.18
0.23
0.07
-0.22
-0.52
-0.72
-0.78
-0.71
-0.56
-0.37
-0.17
0.05
0.28
0.52
0.75
0.90
0.95
0.86
0.67
0.45
0.25
0.11
0.02
-0.03
-0.06
-0.05
-0.01
0.06
0.11
0.07
-0.08
-0.28
-0.42
-0.41
-0.18
0.20
0.60
0.85
0.89
0.72
0.46
0.26
0.20
0.30
0.48
0.60
0.60
0.46
0.28
0.16
0.18
0.32
0.48
0.56
0.49
0.29
0.04
-0.18
-0.32
-0.40
-0.47
-0.56
-0.64
-0.64
-0.53
-0.31
-0.08
0.06
0.04
-0.11
-0.28
-0.37
-0.34
-0.26
-0.26
-0.44
-0.77
-1.12
-1.31
-1.25
-0.99
-0.66
-0.41
-0.29
-0.26
-0.22
-0.08
0.14
0.38
0.53
0.56
0.49
0.38
0.28
0.22
0.18
0.16
0.15
0.15
0.18
0.24
0.33
0.46
0.61
0.77
0.89
0.94
0.91
0.81
0.67
0.51
0.38
0.32
0.33
0.38
0.43
0.43
0.34
0.17
-0.03
-0.21
-0.32
-0.39
-0.45
-0.51
-0.56
-0.57
-0.53
-0.44
-0.37
-0.35
-0.41
-0.54
-0.67
-0.76
-0.77
-0.71
-0.61
-0.48
-0.39
-0.34
-0.33
-0.36
-0.37
-0.32
-0.18
0.06
0.38
0.70
0.96
1.08
1.03
0.79
0.40
-0.05
-0.43
-0.65
-0.66
-0.47
-0.17
0.13
0.34
0.38
0.27
0.06
-0.16
-0.31
-0.36
-0.30
-0.17
-0.02
0.11
0.21
0.27
0.31
0.33
0.31
0.21
0.02
-0.22
-0.41
-0.45
-0.27
0.11
0.54
0.84
0.85
0.55
0.07
-0.38
-0.62
-0.60
-0.39
-0.17
-0.06
-0.09
-0.19
-0.26
-0.23
-0.11
0.02
0.10
0.10
0.04
0.02
0.09
0.25
0.45
0.59
0.62
0.56
0.46
0.39
0.37
0.37
0.32
0.18
-0.02
-0.21
-0.28
-0.20
-0.03
0.12
0.15
0.04
-0.12
-0.23
-0.20
-0.00
0.27
0.49
0.57
0.47
0.24
-0.02
-0.21
-0.29
-0.29
-0.28
-0.31
-0.39
-0.46
-0.43
-0.28
-0.02
0.24
0.37
0.32
0.12
-0.14
-0.35
-0.45
-0.43
-0.35
-0.21
-0.04
0.15
0.32
0.40
0.36
0.20
-0.01
-0.12
-0.06
0.19
0.55
0.88
1.01
0.90
0.55
0.05
-0.45
-0.82
-0.96
-0.87
-0.61
-0.31
-0.10
-0.04
-0.12
-0.26
-0.39
-0.48
-0.57
-0.71
-0.88
-1.03
-1.04
-0.84
-0.43
0.08
0.50
0.73
0.73
0.59
0.43
0.35
0.36
0.40
0.41
0.35
0.29
0.31
0.45
0.67
0.87
0.91
0.72
0.32
-0.15
-0.53
-0.71
-0.67
-0.52
-0.36
-0.30
-0.35
-0.44
-0.50
-0.49
-0.40
-0.32
-0.30
-0.33
-0.36
-0.30
-0.10
0.22
0.54
0.72
0.69
0.43
0.02
-0.41
-0.74
-0.87
-0.78
-0.48
-0.06
0.37
0.72
0.91
0.93
0.83
0.70
0.61
0.62
0.72
0.83
0.90
0.87
0.72
0.48
0.22
-0.01
-0.16
-0.22
-0.22
-0.21
-0.21
-0.20
-0.16
-0.08
0.04
0.13
0.15
0.06
-0.11
-0.27
-0.38
-0.41
-0.39
-0.40
-0.49
-0.63
-0.75
-0.78
-0.66
-0.46
-0.26
-0.15
-0.16
-0.26
-0.39
-0.49
-0.52
-0.46
-0.30
-0.06
0.25
0.56
0.77
0.81
0.65
0.33
-0.06
-0.37
-0.49
-0.39
-0.10
0.28
0.63
0.81
0.78
0.51
0.08
-0.38
-0.76
-0.93
-0.87
-0.61
-0.25
0.10
0.35
0.45
0.42
0.29
0.14
0.01
-0.04
-0.02
0.05
0.13
0.19
0.19
0.14
0.06
0.02
0.02
0.06
0.10
0.10
0.07
0.01
-0.01
0.02
0.11
0.21
0.30
0.31
0.26
0.16
0.03
-0.10
-0.22
-0.32
-0.40
-0.44
-0.42
-0.33
-0.15
0.07
0.29
0.44
0.49
0.40
0.20
-0.08
-0.36
-0.57
-0.65
-0.57
-0.33
0.01
0.34
0.61
0.74
0.75
0.68
0.57
0.43
0.29
0.14
-0.00
-0.11
-0.16
-0.17
-0.16
-0.18
-0.26
-0.40
-0.57
-0.73
-0.83
-0.86
-0.80
-0.62
-0.34
0.02
0.39
0.69
0.84
0.80
0.61
0.32
0.04
-0.18
-0.28
-0.25
-0.12
0.11
0.37
0.60
0.73
0.68
0.46
0.13
-0.19
-0.38
-0.39
-0.20
0.09
0.38
0.58
0.63
0.50
0.22
-0.20
-0.67
-1.07
-1.25
-1.11
-0.65
0.02
0.70
1.17
1.30
1.10
0.68
0.22
-0.13
-0.30
-0.29
-0.17
-0.01
0.13
0.23
0.25
0.20
0.06
-0.18
-0.49
-0.79
-1.00
-1.04
-0.89
-0.61
-0.28
-0.02
0.13
0.16
0.12
0.08
0.07
0.11
0.18
0.22
0.18
-0.01
-0.33
-0.71
-1.02
-1.12
-0.97
-0.58
-0.11
0.31
0.57
0.64
0.55
0.36
0.12
-0.14
-0.36
-0.45
-0.34
0.01
0.51
1.03
1.38
1.43
1.17
0.68
0.15
-0.25
-0.39
-0.26
0.04
0.36
0.55
0.56
0.40
0.15
-0.11
-0.32
-0.48
-0.60
-0.69
-0.75
-0.75
-0.71
-0.62
-0.54
-0.49
-0.47
-0.46
-0.44
-0.37
-0.23
-0.03
0.18
0.35
0.43
0.41
0.31
0.18
0.07
0.02
0.03
0.10
0.23
0.40
0.58
0.72
0.79
0.77
0.67
0.54
0.41
0.27
0.10
-0.10
-0.29
-0.40
-0.36
-0.16
0.13
0.39
0.50
0.43
0.22
-0.03
-0.21
-0.29
-0.26
-0.18
-0.13
-0.14
-0.20
-0.31
-0.43
-0.56
-0.68
-0.75
-0.74
-0.61
-0.37
-0.05
0.26
0.52
0.70
0.82
0.94
1.05
1.08
1.00
0.76
0.39
-0.03
-0.42
-0.72
-0.89
-0.94
-0.87
-0.70
-0.47
-0.23
-0.04
0.05
0.08
0.11
0.18
0.33
0.51
0.66
0.70
0.60
0.36
0.04
-0.28
-0.53
-0.64
-0.60
-0.45
-0.27
-0.13
-0.05
-0.01
0.04
0.14
0.30
0.48
0.64
0.73
0.70
0.56
0.32
0.05
-0.17
-0.25
-0.17
0.02
0.22
0.32
0.27
0.10
-0.11
-0.26
-0.28
-0.18
-0.02
0.14
0.26
0.30
0.23
0.06
-0.19
-0.45
-0.65
-0.73
-0.71
-0.61
-0.51
-0.45
-0.44
-0.50
-0.58
-0.65
-0.66
-0.57
-0.34
0.00
0.37
0.61
0.63
0.41
0.05
-0.26
-0.35
-0.15
0.28
0.78
1.15
1.26
1.10
0.74
0.32
-0.03
-0.23
-0.25
-0.16
-0.03
0.03
-0.03
-0.19
-0.37
-0.46
-0.36
-0.08
0.30
0.64
0.82
0.77
0.55
0.27
0.04
-0.09
-0.13
-0.12
-0.14
-0.20
-0.29
-0.39
-0.47
-0.51
-0.53
-0.55
-0.60
-0.65
-0.68
-0.65
-0.52
-0.32
-0.13
-0.01
-0.04
-0.21
-0.47
-0.71
-0.84
-0.80
-0.56
-0.15
0.36
0.87
1.26
1.43
1.33
1.02
0.61
0.25
0.02
-0.07
-0.06
-0.00
0.08
0.19
0.34
0.49
0.57
0.52
0.32
0.04
-0.19
-0.30
-0.27
-0.17
-0.07
-0.04
-0.08
-0.15
-0.21
-0.22
-0.21
-0.19
-0.17
-0.17
-0.15
-0.12
-0.07
-0.05
-0.06
-0.08
-0.06
0.04
0.20
0.37
0.46
0.36
0.08
-0.30
-0.67
-0.89
-0.90
-0.71
-0.42
-0.13
0.07
0.12
0.03
-0.11
-0.20
-0.14
0.11
0.48
0.83
1.00
0.91
0.61
0.24
-0.02
-0.09
0.01
0.18
0.27
0.22
0.04
-0.19
-0.34
-0.35
-0.25
-0.09
0.02
0.03
-0.05
-0.17
-0.22
-0.16
0.04
0.32
0.58
0.74
0.76
0.67
0.55
0.43
0.33
0.24
0.11
-0.08
-0.31
-0.52
-0.63
-0.61
-0.47
-0.27
-0.10
-0.03
-0.07
-0.22
-0.45
-0.67
-0.82
-0.85
-0.73
-0.48
-0.17
0.12
0.32
0.37
0.29
0.14
0.04
0.08
0.28
0.56
0.81
0.88
0.75
0.49
0.24
0.12
0.17
0.29
0.36
0.30
0.13
-0.02
-0.05
0.03
0.15
0.17
0.01
-0.26
-0.53
-0.64
-0.56
-0.37
-0.21
-0.18
-0.29
-0.45
-0.52
-0.41
-0.11
0.28
0.63
0.83
0.83
0.71
0.57
0.51
0.54
0.60
0.58
0.36
-0.05
-0.53
-0.88
-0.95
-0.72
-0.32
0.01
0.07
-0.18
-0.63
-1.05
-1.24
-1.14
-0.83
-0.47
-0.21
-0.08
-0.03
0.00
0.06
0.11
0.12
0.05
-0.04
-0.10
-0.07
0.06
0.26
0.44
0.56
0.57
0.47
0.27
0.03
-0.18
-0.29
-0.24
-0.06
0.18
0.35
0.38
0.28
0.09
-0.08
-0.17
-0.16
-0.08
0.02
0.08
0.08
0.02
-0.08
-0.16
-0.19
-0.21
-0.21
-0.24
-0.28
-0.29
-0.22
-0.06
0.13
0.24
0.19
-0.03
-0.27
-0.39
-0.26
0.11
0.59
1.03
1.30
1.39
1.34
1.19
0.93
0.58
0.15
-0.27
-0.58
-0.69
-0.58
-0.32
-0.02
0.20
0.30
0.28
0.20
0.12
0.08
0.11
0.20
0.31
0.39
0.38
0.24
0.01
-0.26
-0.49
-0.64
-0.71
-0.70
-0.63
-0.53
-0.40
-0.25
-0.09
0.06
0.17
0.22
0.23
0.20
0.12
-0.00
-0.15
-0.30
-0.39
-0.39
-0.31
-0.19
-0.11
-0.12
-0.24
-0.42
-0.56
-0.59
-0.48
-0.26
-0.01
0.18
0.28
0.27
0.18
0.06
-0.03
-0.05
0.03
0.18
0.33
0.38
0.27
0.04
-0.23
-0.41
-0.42
-0.29
-0.09
0.07
0.14
0.14
0.12
0.09
0.05
0.00
-0.06
-0.11
-0.11
-0.05
0.01
0.04
0.01
-0.05
-0.07
-0.00
0.13
0.24
0.24
0.10
-0.13
-0.33
-0.45
-0.47
-0.44
-0.43
-0.48
-0.58
-0.68
-0.74
-0.72
-0.62
-0.45
-0.23
0.01
0.23
0.37
0.40
0.30
0.12
-0.07
-0.20
-0.24
-0.18
-0.04
0.18
0.44
0.74
1.05
1.32
1.48
1.50
1.37
1.11
0.77
0.44
0.17
0.02
-0.01
0.10
0.28
0.47
0.58
0.52
0.27
-0.13
-0.55
-0.87
-1.00
-0.94
-0.76
-0.55
-0.40
-0.31
-0.25
-0.15
0.02
0.25
0.47
0.60
0.58
0.43
0.22
0.04
-0.04
-0.02
0.03
0.04
-0.04
-0.19
-0.32
-0.35
-0.26
-0.11
0.02
0.06
0.00
-0.06
-0.03
0.13
0.36
0.56
0.63
0.52
0.27
-0.03
-0.30
-0.50
-0.63
-0.69
-0.70
-0.67
-0.60
-0.49
-0.35
-0.21
-0.07
0.07
0.21
0.36
0.51
0.63
0.65
0.56
0.38
0.15
-0.02
-0.07
0.02
0.15
0.23
0.18
0.01
-0.19
-0.31
-0.29
-0.17
-0.03
0.04
-0.02
-0.17
-0.36
-0.52
-0.60
-0.60
-0.50
-0.30
-0.01
0.33
0.66
0.93
1.08
1.10
0.96
0.67
0.29
-0.14
-0.53
-0.79
-0.89
-0.86
-0.75
-0.65
-0.56
-0.44
-0.23
0.11
0.56
0.98
1.25
1.28
1.07
0.70
0.31
-0.01
-0.22
-0.34
-0.41
-0.45
-0.46
-0.43
-0.38
-0.35
-0.38
-0.49
-0.62
-0.72
-0.71
-0.61
-0.45
-0.34
-0.30
-0.35
-0.42
-0.43
-0.33
-0.14
0.13
0.45
0.76
1.04
1.21
1.25
1.17
0.98
0.74
0.49
0.22
-0.05
-0.31
-0.50
-0.53
-0.38
-0.09
0.20
0.36
0.29
0.05
-0.21
-0.32
-0.20
0.08
0.39
0.59
0.62
0.52
0.36
0.20
0.06
-0.06
-0.16
-0.21
-0.19
-0.11
0.00
0.09
0.12
0.10
0.05
0.02
0.01
0.04
0.10
0.18
0.29
0.41
0.49
0.51
0.42
0.24
0.03
-0.12
-0.19
-0.18
-0.15
-0.18
-0.30
-0.52
-0.76
-0.93
-0.95
-0.80
-0.55
-0.29
-0.09
0.00
0.01
0.00
0.01
0.07
0.14
0.18
0.19
0.16
0.11
0.05
-0.04
-0.20
-0.41
-0.61
-0.70
-0.60
-0.30
0.11
0.46
0.60
0.48
0.16
-0.20
-0.45
-0.52
-0.41
-0.22
-0.06
0.02
0.03
0.02
0.06
0.14
0.25
0.34
0.37
0.33
0.24
0.11
-0.03
-0.18
-0.32
-0.42
-0.42
-0.27
0.02
0.38
0.70
0.84
0.74
0.44
0.02
-0.37
-0.60
-0.67
-0.59
-0.43
-0.23
-0.01
0.26
0.54
0.75
0.77
0.54
0.12
-0.33
-0.62
-0.65
-0.43
-0.11
0.13
0.18
0.10
0.02
0.07
0.28
0.52
0.66
0.56
0.26
-0.11
-0.37
-0.38
-0.14
0.25
0.60
0.78
0.75
0.56
0.32
0.12
0.01
-0.05
-0.13
-0.28
-0.49
-0.66
-0.72
-0.59
-0.34
-0.07
0.09
0.04
-0.20
-0.52
-0.79
-0.89
-0.79
-0.55
-0.28
-0.06
0.06
0.10
0.11
0.14
0.23
0.35
0.45
0.50
0.48
0.40
0.29
0.18
0.07
-0.01
-0.04
0.00
0.10
0.22
0.29
0.25
0.10
-0.14
-0.35
-0.47
-0.45
-0.30
-0.07
0.16
0.34
0.42
0.39
0.25
0.05
-0.12
-0.21
-0.18
-0.04
0.13
0.28
0.33
0.28
0.18
0.08
0.03
0.01
-0.01
-0.07
-0.16
-0.25
-0.25
-0.12
0.10
0.34
0.46
0.38
0.13
-0.19
-0.48
-0.64
-0.68
-0.64
-0.60
-0.59
-0.57
-0.49
-0.32
-0.08
0.19
0.39
0.47
0.42
0.27
0.08
-0.07
-0.14
-0.10
0.03
0.22
0.43
0.58
0.64
0.60
0.49
0.39
0.34
0.37
0.41
0.41
0.29
0.05
-0.24
-0.50
-0.66
-0.70
-0.64
-0.54
-0.42
-0.32
-0.22
-0.13
-0.06
0.01
0.05
0.09
0.12
0.14
0.13
0.07
-0.05
-0.20
-0.39
-0.57
-0.74
-0.86
-0.87
-0.77
-0.58
-0.33
-0.12
0.02
0.06
0.05
0.03
0.03
0.04
0.00
-0.12
-0.30
-0.46
-0.50
-0.33
0.03
0.50
0.98
1.35
1.57
1.63
1.53
1.32
1.03
0.70
0.43
0.27
0.25
0.31
0.36
0.34
0.24
0.12
0.05
0.04
0.05
-0.02
-0.21
-0.48
-0.71
-0.76
-0.57
-0.20
0.22
0.53
0.66
0.62
0.48
0.32
0.17
0.02
-0.13
-0.27
-0.35
-0.36
-0.27
-0.14
-0.01
0.06
0.05
-0.05
-0.21
-0.39
-0.55
-0.64
-0.61
-0.46
-0.22
0.03
0.18
0.18
0.02
-0.22
-0.43
-0.52
-0.46
-0.31
-0.13
0.02
0.12
0.15
0.11
0.01
-0.16
-0.34
-0.46
-0.45
-0.27
0.04
0.40
0.67
0.77
0.70
0.50
0.26
0.06
-0.06
-0.12
-0.13
-0.11
-0.09
-0.07
-0.04
-0.00
0.03
0.04
-0.00
-0.12
-0.29
-0.44
-0.50
-0.41
-0.21
0.04
0.24
0.33
0.33
0.29
0.28
0.29
0.25
0.11
-0.12
-0.39
-0.59
-0.62
-0.48
-0.23
0.02
0.23
0.38
0.48
0.54
0.56
0.50
0.33
0.11
-0.11
-0.20
-0.12
0.12
0.39
0.53
0.46
0.19
-0.15
-0.38
-0.40
-0.23
-0.00
0.11
0.04
-0.18
-0.43
-0.54
-0.48
-0.29
-0.09
0.02
0.02
-0.03
-0.05
-0.01
0.08
0.13
0.10
-0.01
-0.15
-0.24
-0.27
-0.27
-0.30
-0.40
-0.55
-0.66
-0.64
-0.47
-0.20
0.05
0.17
0.17
0.12
0.15
0.34
0.65
0.97
1.16
1.16
0.98
0.71
0.48
0.34
0.31
0.32
0.28
0.16
-0.03
-0.21
-0.31
-0.27
-0.12
0.06
0.19
0.22
0.18
0.12
0.10
0.12
0.13
0.06
-0.11
-0.33
-0.52
-0.62
-0.61
-0.53
-0.47
-0.45
-0.46
-0.47
-0.42
-0.27
-0.05
0.23
0.50
0.69
0.74
0.59
0.26
-0.16
-0.51
-0.69
-0.64
-0.45
-0.27
-0.20
-0.26
-0.37
-0.41
-0.32
-0.14
0.05
0.15
0.14
0.06
0.03
0.09
0.23
0.39
0.49
0.46
0.32
0.15
0.01
-0.02
0.08
0.30
0.58
0.83
0.97
0.97
0.83
0.61
0.37
0.17
0.02
-0.08
-0.15
-0.19
-0.22
-0.24
-0.27
-0.34
-0.46
-0.57
-0.62
-0.56
-0.39
-0.17
0.01
0.09
0.03
-0.12
-0.31
-0.48
-0.60
-0.65
-0.64
-0.57
-0.45
-0.27
-0.08
0.06
0.11
0.06
-0.08
-0.23
-0.30
-0.26
-0.11
0.06
0.15
0.12
-0.05
-0.28
-0.47
-0.53
-0.43
-0.21
0.05
0.27
0.36
0.30
0.12
-0.10
-0.26
-0.27
-0.11
0.20
0.57
0.92
1.17
1.30
1.31
1.23
1.08
0.89
0.64
0.34
0.02
-0.30
-0.57
-0.72
-0.72
-0.56
-0.26
0.07
0.33
0.42
0.28
-0.04
-0.41
-0.70
-0.83
-0.77
-0.60
-0.40
-0.21
-0.01
0.25
0.58
0.92
1.16
1.19
0.99
0.64
0.27
0.00
-0.16
-0.28
-0.45
-0.71
-0.98
-1.14
-1.09
-0.84
-0.50
-0.25
-0.22
-0.44
-0.78
-1.05
-1.09
-0.82
-0.32
0.27
0.79
1.13
1.28
1.26
1.14
0.96
0.73
0.47
0.19
-0.05
-0.19
-0.19
-0.07
0.10
0.25
0.32
0.28
0.14
-0.08
-0.34
-0.59
-0.76
-0.75
-0.51
-0.08
0.40
0.77
0.87
0.71
0.40
0.13
0.03
0.13
0.36
0.58
0.67
0.62
0.46
0.26
0.06
-0.10
-0.24
-0.33
-0.35
-0.31
-0.20
-0.08
0.00
-0.02
-0.16
-0.42
-0.73
-1.03
-1.27
-1.38
-1.34
-1.17
-0.89
-0.56
-0.22
0.06
0.28
0.44
0.55
0.65
0.74
0.81
0.82
0.74
0.58
0.41
0.28
0.27
0.39
0.56
0.64
0.52
0.17
-0.32
-0.76
-1.00
-0.94
-0.65
-0.28
0.03
0.18
0.19
0.15
0.11
0.10
0.08
0.04
-0.05
-0.14
-0.19
-0.18
-0.12
-0.05
-0.02
-0.03
-0.07
-0.13
-0.19
-0.26
-0.33
-0.39
-0.40
-0.35
-0.24
-0.06
0.14
0.36
0.57
0.78
0.95
1.05
1.04
0.91
0.68
0.43
0.22
0.11
0.12
0.22
0.35
0.44
0.44
0.33
0.09
-0.24
-0.59
-0.89
-1.04
-1.02
-0.90
-0.77
-0.72
-0.75
-0.73
-0.56
-0.18
0.32
0.75
0.95
0.84
0.49
0.09
-0.21
-0.36
-0.40
-0.41
-0.43
-0.42
-0.30
-0.03
0.33
0.68
0.88
0.85
0.61
0.25
-0.10
-0.34
-0.41
-0.32
-0.13
0.08
0.24
0.32
0.34
0.31
0.28
0.24
0.19
0.09
-0.08
-0.32
-0.56
-0.76
-0.84
-0.81
-0.67
-0.52
-0.37
-0.25
-0.13
-0.00
0.13
0.24
0.27
0.22
0.13
0.06
0.08
0.23
0.48
0.74
0.94
0.99
0.87
0.60
0.25
-0.09
-0.34
-0.45
-0.45
-0.37
-0.25
-0.10
0.09
0.32
0.53
0.64
0.56
0.29
-0.07
-0.39
-0.53
-0.45
-0.22
0.01
0.11
0.04
-0.16
-0.39
-0.53
-0.54
-0.48
-0.42
-0.43
-0.51
-0.59
-0.59
-0.45
-0.18
0.16
0.49
0.74
0.87
0.89
0.80
0.65
0.45
0.25
0.09
0.01
0.03
0.13
0.25
0.36
0.41
0.40
0.36
0.31
0.24
0.14
0.00
-0.17
-0.34
-0.41
-0.35
-0.15
0.11
0.33
0.41
0.32
0.09
-0.20
-0.49
-0.72
-0.84
-0.86
-0.78
-0.64
-0.50
-0.42
-0.45
-0.58
-0.74
-0.86
-0.85
-0.70
-0.46
-0.24
-0.11
-0.10
-0.15
-0.22
-0.26
-0.32
-0.46
-0.73
-1.11
-1.53
-1.86
-2.03
-2.03
-1.93
-1.85
-1.88
-2.09
-2.46
-2.90
-3.32
-3.58
-3.65
-3.55
-3.42
-3.45
-3.81
-4.56
-5.64
-6.87
-7.98
-8.78
-9.22
-9.43
-9.72
-10.43
-11.81
-13.83
-16.17
-18.31
-19.82
-20.54
-20.79
-21.22
-22.49
-24.99
-28.52
-32.43
-35.82
-37.96
-38.64
-38.27
-37.78
-38.37
-41.12
-46.58
-54.30
-62.55
-68.46
-68.63
-60.28
-42.37
-16.32
14.25
44.62
70.49
89.24
100.41
105.23
105.72
103.74
100.51
96.45
91.32
84.46
75.06
62.52
46.83
28.86
10.26
-7.04
-21.29
-31.39
-36.91
-37.88
-34.55
-27.48
-17.72
-6.90
2.94
9.96
13.22
12.96
10.49
7.48
5.24
4.26
4.26
4.55
4.53
3.95
2.99
2.03
1.45
1.40
1.76
2.22
2.45
2.22
1.53
0.56
-0.35
-0.91
-0.98
-0.58
0.09
0.76
1.19
1.27
1.04
0.68
0.36
0.22
0.25
0.38
0.49
0.54
0.54
0.53
0.55
0.55
0.46
0.20
-0.25
-0.81
-1.32
-1.63
-1.70
-1.57
-1.33
-1.10
-0.93
-0.83
-0.77
-0.73
-0.68
-0.60
-0.46
-0.26
0.00
0.29
0.52
0.62
0.57
0.39
0.19
0.06
0.05
0.17
0.38
0.61
0.83
1.01
1.11
1.09
0.94
0.66
0.34
0.04
-0.15
-0.23
-0.25
-0.29
-0.37
-0.46
-0.50
-0.40
-0.18
0.12
0.37
0.46
0.35
0.04
-0.35
-0.71
-0.93
-0.97
-0.86
-0.69
-0.53
-0.45
-0.42
-0.41
-0.39
-0.33
-0.23
-0.10
0.03
0.18
0.35
0.50
0.62
0.66
0.62
0.54
0.45
0.41
0.44
0.51
0.57
0.57
0.48
0.31
0.11
-0.05
-0.12
-0.06
0.12
0.33
0.50
0.53
0.40
0.10
-0.26
-0.61
-0.85
-0.92
-0.82
-0.60
-0.34
-0.12
0.01
0.06
0.06
0.04
0.05
0.05
0.01
-0.10
-0.26
-0.43
-0.54
-0.55
-0.47
-0.34
-0.22
-0.13
-0.07
0.01
0.15
0.35
0.54
0.62
0.54
0.31
0.01
-0.22
-0.29
-0.21
-0.06
0.03
-0.01
-0.16
-0.33
-0.41
-0.35
-0.19
-0.00
0.14
0.21
0.20
0.16
0.12
0.11
0.09
0.03
-0.10
-0.29
-0.46
-0.51
-0.36
-0.03
0.38
0.71
0.80
0.63
0.27
-0.10
-0.38
-0.50
-0.51
-0.46
-0.40
-0.34
-0.26
-0.19
-0.16
-0.18
-0.23
-0.26
-0.22
-0.12
-0.03
-0.04
-0.18
-0.39
-0.55
-0.57
-0.41
-0.15
0.10
0.26
0.31
0.28
0.25
0.25
0.25
0.24
0.19
0.10
0.02
-0.02
0.00
0.07
0.16
0.26
0.36
0.43
0.45
0.41
0.33
0.25
0.25
0.37
0.57
0.75
0.81
0.67
0.38
0.03
-0.25
-0.39
-0.40
-0.34
-0.27
-0.22
-0.20
-0.17
-0.15
-0.14
-0.18
-0.28
-0.44
-0.61
-0.75
-0.82
-0.77
-0.59
-0.28
0.11
0.51
0.81
0.90
0.77
0.43
0.01
-0.35
-0.55
-0.58
-0.48
-0.35
-0.25
-0.23
-0.27
-0.32
-0.35
-0.33
-0.24
-0.09
0.08
0.24
0.36
0.43
0.42
0.35
0.24
0.08
-0.10
-0.28
-0.42
-0.45
-0.33
-0.07
0.26
0.56
0.75
0.79
0.71
0.57
0.42
0.27
0.13
-0.04
-0.25
-0.49
-0.73
-0.95
-1.12
-1.23
-1.24
-1.11
-0.83
-0.44
-0.04
0.27
0.42
0.40
0.29
0.16
0.05
-0.03
-0.10
-0.13
-0.11
0.03
0.26
0.49
0.63
0.61
0.47
0.35
0.37
0.55
0.80
0.96
0.90
0.64
0.31
0.07
0.03
0.17
0.39
0.55
0.53
0.34
0.04
-0.23
-0.38
-0.35
-0.15
0.16
0.46
0.67
0.73
0.65
0.48
0.27
0.08
-0.09
-0.24
-0.37
-0.47
-0.50
-0.45
-0.34
-0.18
-0.02
0.11
0.17
0.15
0.02
-0.21
-0.48
-0.73
-0.88
-0.90
-0.82
-0.70
-0.63
-0.64
-0.71
-0.76
-0.70
-0.50
-0.19
0.15
0.41
0.52
0.47
0.30
0.10
-0.04
-0.10
-0.06
0.03
0.11
0.12
0.05
-0.06
-0.12
-0.07
0.12
0.41
0.71
0.93
1.00
0.92
0.70
0.40
0.09
-0.15
-0.28
-0.26
-0.15
-0.04
-0.05
-0.22
-0.50
-0.75
-0.85
-0.70
-0.36
0.06
0.41
0.61
0.68
0.70
0.74
0.81
0.86
0.84
0.71
0.48
0.20
-0.05
-0.21
-0.28
-0.27
-0.22
-0.19
-0.21
-0.30
-0.46
-0.66
-0.87
-1.01
-1.00
-0.81
-0.46
-0.07
0.22
0.29
0.11
-0.23
-0.61
-0.89
-1.00
-0.94
-0.75
-0.51
-0.25
-0.03
0.14
0.20
0.12
-0.07
-0.29
-0.44
-0.39
-0.10
0.36
0.88
1.29
1.48
1.42
1.16
0.83
0.55
0.40
0.38
0.42
0.43
0.36
0.23
0.13
0.14
0.28
0.50
0.69
0.74
0.65
0.46
0.26
0.11
0.00
-0.12
-0.32
-0.60
-0.92
-1.18
-1.31
-1.23
-0.98
-0.62
-0.28
-0.05
0.03
-0.02
-0.12
-0.18
-0.17
-0.08
0.02
0.09
0.13
0.16
0.24
0.36
0.50
0.57
0.52
0.35
0.11
-0.12
-0.24
-0.22
-0.10
0.06
0.14
0.09
-0.06
-0.24
-0.35
-0.33
-0.19
-0.01
0.12
0.14
0.08
0.02
0.03
0.13
0.23
0.22
0.06
-0.19
-0.40
-0.42
-0.19
0.22
0.63
0.88
0.87
0.59
0.17
-0.24
-0.51
-0.57
-0.43
-0.15
0.14
0.34
0.39
0.29
0.10
-0.10
-0.28
-0.42
-0.53
-0.62
-0.66
-0.57
-0.34
0.01
0.37
0.60
0.60
0.39
0.03
-0.30
-0.48
-0.43
-0.18
0.16
0.49
0.71
0.79
0.77
0.72
0.70
0.70
0.68
0.57
0.34
-0.01
-0.39
-0.70
-0.88
-0.88
-0.74
-0.53
-0.34
-0.22
-0.25
-0.42
-0.68
-0.94
-1.09
-1.06
-0.84
-0.49
-0.11
0.21
0.44
0.63
0.81
1.01
1.17
1.25
1.19
0.99
0.74
0.50
0.33
0.20
0.07
-0.13
-0.39
-0.66
-0.85
-0.92
-0.87
-0.75
-0.62
-0.49
-0.37
-0.23
-0.08
0.04
0.11
0.13
0.13
0.14
0.21
0.32
0.42
0.48
0.45
0.35
0.23
0.15
0.13
0.18
0.25
0.30
0.33
0.35
0.39
0.44
0.49
0.47
0.36
0.17
-0.05
-0.23
-0.33
-0.39
-0.47
-0.63
-0.86
-1.09
-1.17
-1.02
-0.65
-0.17
0.27
0.52
0.55
0.41
0.21
0.08
0.09
0.21
0.38
0.52
0.55
0.45
0.25
0.02
-0.18
-0.27
-0.26
-0.18
-0.10
-0.08
-0.16
-0.32
-0.49
-0.60
-0.57
-0.39
-0.11
0.15
0.33
0.39
0.34
0.27
0.23
0.25
0.33
0.39
0.39
0.29
0.09
-0.18
-0.47
-0.72
-0.88
-0.90
-0.75
-0.45
-0.09
0.25
0.47
0.54
0.52
0.49
0.51
0.59
0.67
0.63
0.43
0.10
-0.24
-0.45
-0.45
-0.29
-0.08
0.05
0.05
-0.06
-0.19
-0.27
-0.29
-0.29
-0.29
-0.31
-0.32
-0.27
-0.16
-0.06
-0.01
-0.06
-0.19
-0.33
-0.40
-0.39
-0.32
-0.24
-0.18
-0.14
-0.07
0.06
0.24
0.43
0.54
0.52
0.36
0.11
-0.14
-0.32
-0.37
-0.28
-0.07
0.20
0.43
0.55
0.49
0.26
-0.07
-0.39
-0.57
-0.55
-0.33
0.04
0.48
0.88
1.14
1.20
1.04
0.71
0.29
-0.11
-0.43
-0.63
-0.72
-0.74
-0.68
-0.56
-0.38
-0.18
-0.00
0.10
0.12
0.09
0.07
0.10
0.19
0.31
0.39
0.39
0.31
0.19
0.10
0.08
0.13
0.21
0.26
0.23
0.15
0.09
0.12
0.24
0.38
0.42
0.26
-0.07
-0.44
-0.69
-0.67
-0.44
-0.10
0.16
0.21
0.08
-0.14
-0.32
-0.39
-0.38
-0.37
-0.40
-0.48
-0.53
-0.48
-0.31
-0.07
0.19
0.39
0.53
0.60
0.64
0.65
0.61
0.54
0.41
0.26
0.11
-0.01
-0.10
-0.18
-0.25
-0.32
-0.41
-0.51
-0.60
-0.66
-0.66
-0.57
-0.43
-0.28
-0.16
-0.11
-0.16
-0.26
-0.39
-0.50
-0.53
-0.47
-0.31
-0.09
0.13
0.29
0.35
0.31
0.20
0.05
-0.09
-0.20
-0.26
-0.27
-0.23
-0.13
0.02
0.20
0.41
0.60
0.75
0.80
0.73
0.55
0.32
0.14
0.07
0.10
0.18
0.19
0.08
-0.13
-0.32
-0.39
-0.28
-0.05
0.17
0.25
0.17
-0.01
-0.19
-0.27
-0.21
-0.05
0.16
0.35
0.51
0.60
0.63
0.55
0.38
0.16
-0.03
-0.10
-0.00
0.23
0.50
0.69
0.70
0.52
0.20
-0.15
-0.41
-0.52
-0.45
-0.27
-0.04
0.15
0.30
0.38
0.42
0.41
0.33
0.20
0.03
-0.10
-0.16
-0.11
-0.00
0.10
0.13
0.09
0.02
-0.06
-0.13
-0.20
-0.32
-0.51
-0.76
-1.00
-1.17
-1.20
-1.09
-0.85
-0.51
-0.13
0.25
0.59
0.84
0.95
0.90
0.71
0.42
0.11
-0.18
-0.40
-0.55
-0.60
-0.56
-0.43
-0.25
-0.05
0.08
0.12
0.07
-0.00
-0.04
0.01
0.11
0.21
0.24
0.19
0.10
0.02
-0.02
-0.05
-0.11
-0.20
-0.29
-0.30
-0.16
0.12
0.48
0.78
0.91
0.82
0.52
0.08
-0.40
-0.81
-1.06
-1.06
-0.82
-0.42
-0.00
0.25
0.25
0.04
-0.29
-0.56
-0.66
-0.58
-0.36
-0.09
0.12
0.23
0.21
0.06
-0.19
-0.46
-0.64
-0.63
-0.41
-0.03
0.41
0.77
0.99
1.05
1.01
0.90
0.74
0.56
0.36
0.18
0.05
-0.01
-0.03
-0.01
0.03
0.11
0.27
0.48
0.68
0.77
0.67
0.40
0.07
-0.19
-0.29
-0.26
-0.20
-0.21
-0.34
-0.56
-0.75
-0.84
-0.78
-0.62
-0.40
-0.17
0.03
0.18
0.22
0.13
-0.08
-0.36
-0.61
-0.71
-0.60
-0.30
0.08
0.42
0.59
0.53
0.30
0.00
-0.21
-0.26
-0.13
0.10
0.31
0.42
0.41
0.32
0.24
0.22
0.29
0.40
0.51
0.54
0.44
0.19
-0.18
-0.61
-0.99
-1.21
-1.24
-1.12
-0.90
-0.66
-0.45
-0.26
-0.10
0.03
0.08
0.02
-0.13
-0.30
-0.40
-0.35
-0.18
0.04
0.23
0.33
0.38
0.44
0.54
0.65
0.68
0.55
0.27
-0.08
-0.38
-0.51
-0.42
-0.16
0.17
0.45
0.62
0.66
0.60
0.51
0.43
0.38
0.31
0.19
0.02
-0.17
-0.26
-0.18
0.11
0.51
0.85
0.93
0.69
0.20
-0.36
-0.75
-0.84
-0.63
-0.27
-0.00
-0.02
-0.39
-1.04
-1.76
-2.26
-2.32
-1.87
-1.09
-0.36
-0.11
-0.60
-1.78
-3.21
-4.26
-4.39
-3.43
-1.76
-0.17
0.51
-0.20
-2.17
-4.60
-6.45
-6.90
-5.75
-3.54
-1.28
-0.03
-0.41
-2.53
-6.01
-10.12
-13.71
-15.13
-12.44
-4.14
9.75
26.91
43.01
53.19
54.22
46.01
31.75
16.29
3.93
-3.40
-6.34
-6.98
-7.23
-7.72
-7.89
-6.88
-4.51
-1.58
0.62
1.06
-0.37
-2.84
-5.05
-5.93
-5.14
-3.24
-1.29
-0.36
-1.02
-3.07
-5.66
-7.70
-8.35
-7.37
-5.18
-2.64
-0.64
0.28
0.17
-0.51
-1.11
-1.17
-0.61
0.28
1.06
1.40
1.25
0.85
0.52
0.52
0.87
1.40
1.89
2.19
2.30
2.36
2.50
2.80
3.25
3.80
4.38
4.93
5.35
5.42
4.87
3.53
1.42
-1.10
-3.50
-5.25
-6.06
-5.96
-5.25
-4.34
-3.50
-2.85
-2.31
-1.80
-1.27
-0.78
-0.42
-0.22
-0.13
-0.03
0.21
0.65
1.27
1.95
2.60
3.19
3.78
4.49
5.39
6.48
7.64
8.66
9.38
9.74
9.78
9.67
9.59
9.73
10.14
10.83
11.72
12.74
13.91
15.23
16.71
18.20
19.38
19.84
19.17
17.15
13.79
9.30
3.99
-1.79
-7.62
-13.06
-17.58
-20.77
-22.41
-22.62
-21.78
-20.46
-19.08
-17.89
-16.89
-15.94
-14.95
-13.91
-12.90
-12.01
-11.25
-10.57
-9.88
-9.10
-8.21
-7.29
-6.45
-5.77
-5.26
-4.87
-4.47
-3.94
-3.23
-2.39
-1.55
-0.86
-0.40
-0.16
-0.04
0.08
0.28
0.57
0.91
1.25
1.53
1.76
1.91
1.99
2.03
2.07
2.17
2.40
2.79
3.32
3.95
4.61
5.18
5.51
5.37
4.57
3.03
0.93
-1.39
-3.44
-4.87
-5.55
-5.63
-5.37
-5.03
-4.70
-4.34
-3.90
-3.39
-2.93
-2.69
-2.72
-2.95
-3.21
-3.35
-3.29
-3.08
-2.78
-2.47
-2.14
-1.79
-1.42
-1.07
-0.82
-0.69
-0.64
-0.56
-0.38
-0.09
0.25
0.53
0.68
0.67
0.57
0.44
0.37
0.38
0.48
0.61
0.70
0.71
0.64
0.52
0.44
0.45
0.57
0.72
0.84
0.84
0.73
0.52
0.25
-0.07
-0.42
-0.78
-1.12
-1.36
-1.45
-1.38
-1.20
-0.98
-0.76
-0.54
-0.33
-0.13
0.03
0.11
0.14
0.19
0.36
0.65
0.99
1.25
1.30
1.11
0.80
0.51
0.35
0.35
0.44
0.49
0.44
0.29
0.11
-0.02
-0.12
-0.22
-0.37
-0.56
-0.70
-0.71
-0.54
-0.20
0.21
0.55
0.74
0.75
0.61
0.40
0.17
0.00
-0.10
-0.12
-0.10
-0.10
-0.19
-0.40
-0.69
-0.97
-1.10
-1.03
-0.76
-0.42
-0.17
-0.13
-0.31
-0.65
-0.99
-1.22
-1.29
-1.29
-1.29
-1.41
-1.60
-1.76
-1.71
-1.37
-0.79
-0.15
0.35
0.54
0.44
0.15
-0.17
-0.38
-0.47
-0.46
-0.41
-0.34
-0.24
-0.12
-0.00
0.06
0.00
-0.19
-0.46
-0.68
-0.75
-0.59
-0.25
0.14
0.45
0.58
0.53
0.40
0.29
0.24
0.26
0.29
0.31
0.30
0.30
0.35
0.47
0.61
0.71
0.74
0.67
0.55
0.38
0.18
-0.05
-0.32
-0.57
-0.72
-0.73
-0.58
-0.37
-0.24
-0.30
-0.56
-0.89
-1.13
-1.15
-0.96
-0.68
-0.43
-0.31
-0.30
-0.31
-0.24
-0.10
0.05
0.12
0.08
-0.05
-0.18
-0.22
-0.15
0.00
0.15
0.24
0.24
0.19
0.14
0.13
0.13
0.12
0.03
-0.13
-0.32
-0.43
-0.41
-0.23
0.07
0.35
0.53
0.54
0.43
0.30
0.25
0.33
0.52
0.72
0.84
0.79
0.54
0.11
-0.40
-0.86
-1.13
-1.06
-0.61
0.19
1.19
2.18
2.93
3.28
3.18
2.68
1.96
1.23
0.66
0.35
0.25
0.23
0.14
-0.13
-0.52
-0.91
-1.14
-1.12
-0.88
-0.55
-0.27
-0.09
-0.02
0.01
0.07
0.17
0.32
0.47
0.62
0.75
0.83
0.86
0.82
0.74
0.70
0.77
0.99
1.36
1.82
2.27
2.64
2.88
3.00
3.02
2.99
2.93
2.90
2.92
3.04
3.26
3.57
3.93
4.29
4.62
4.94
5.29
5.70
6.15
6.55
6.73
6.46
5.53
3.87
1.57
-1.05
-3.60
-5.67
-7.00
-7.57
-7.51
-7.08
-6.53
-6.01
-5.57
-5.21
-4.92
-4.73
-4.64
-4.63
-4.65
-4.58
-4.37
-3.99
-3.51
-3.03
-2.64
-2.38
-2.20
-2.05
-1.87
-1.65
-1.44
-1.29
-1.21
-1.17
-1.14
-1.07
-0.93
-0.70
-0.40
-0.07
0.20
0.36
0.36
0.22
0.01
-0.17
-0.25
-0.22
-0.12
-0.03
0.01
-0.01
-0.05
-0.06
-0.01
0.07
0.11
0.09
0.01
-0.09
-0.16
-0.19
-0.20
-0.23
-0.25
-0.24
-0.15
0.05
0.29
0.49
0.56
0.51
0.38
0.27
0.24
0.30
0.41
0.49
0.51
0.47
0.41
0.36
0.32
0.28
0.17
-0.02
-0.30
-0.64
-0.94
-1.13
-1.13
-0.96
-0.70
-0.43
-0.25
-0.17
-0.13
-0.07
0.04
0.19
0.29
0.27
0.10
-0.17
-0.43
-0.57
-0.57
-0.47
-0.36
-0.34
-0.39
-0.46
-0.47
-0.37
-0.18
0.01
0.14
0.18
0.18
0.19
0.26
0.41
0.60
0.78
0.90
0.94
0.90
0.76
0.55
0.27
-0.05
-0.36
-0.58
-0.67
-0.56
-0.29
0.10
0.48
0.74
0.81
0.70
0.47
0.24
0.07
-0.02
-0.05
-0.06
-0.07
-0.08
-0.09
-0.10
-0.12
-0.15
-0.17
-0.16
-0.13
-0.08
-0.05
-0.06
-0.09
-0.13
-0.13
-0.10
-0.08
-0.10
-0.11
-0.06
0.11
0.38
0.66
0.82
0.76
0.50
0.15
-0.14
-0.29
-0.27
-0.17
-0.06
0.03
0.12
0.29
0.52
0.78
0.93
0.90
0.65
0.23
-0.23
-0.62
-0.82
-0.81
-0.61
-0.31
-0.02
0.14
0.08
-0.21
-0.63
-1.02
-1.23
-1.16
-0.84
-0.37
0.07
0.34
0.36
0.15
-0.22
-0.60
-0.87
-0.94
-0.77
-0.42
-0.01
0.31
0.44
0.34
0.09
-0.19
-0.38
-0.40
-0.24
0.03
0.32
0.55
0.67
0.67
0.57
0.39
0.20
0.04
-0.05
-0.07
-0.01
0.08
0.16
0.19
0.16
0.07
-0.04
-0.14
-0.17
-0.07
0.13
0.40
0.63
0.74
0.71
0.58
0.42
0.28
0.14
-0.01
-0.22
-0.45
-0.65
-0.72
-0.65
-0.46
-0.27
-0.13
-0.07
-0.05
0.03
0.20
0.47
0.74
0.93
0.98
0.85
0.60
0.29
-0.01
-0.24
-0.38
-0.46
-0.47
-0.44
-0.38
-0.28
-0.14
0.04
0.23
0.38
0.45
0.42
0.31
0.16
0.04
-0.03
-0.07
-0.16
-0.34
-0.61
-0.90
-1.11
-1.13
-0.90
-0.47
0.01
0.41
0.60
0.56
0.37
0.14
0.01
0.01
0.12
0.24
0.26
0.15
-0.07
-0.31
-0.46
-0.44
-0.28
-0.03
0.26
0.54
0.78
0.95
0.98
0.82
0.46
-0.03
-0.47
-0.70
-0.63
-0.32
0.08
0.36
0.44
0.31
0.07
-0.15
-0.26
-0.27
-0.21
-0.17
-0.18
-0.29
-0.48
-0.71
-0.91
-1.00
-0.92
-0.69
-0.37
-0.05
0.16
0.18
0.01
-0.29
-0.62
-0.82
-0.79
-0.51
-0.02
0.52
0.97
1.21
1.23
1.07
0.81
0.53
0.29
0.09
-0.08
-0.20
-0.25
-0.22
-0.12
0.04
0.20
0.34
0.44
0.50
0.53
0.54
0.53
0.48
0.35
0.11
-0.20
-0.54
-0.83
-0.96
-0.93
-0.78
-0.58
-0.42
-0.30
-0.17
0.01
0.27
0.55
0.73
0.74
0.57
0.25
-0.09
-0.34
-0.43
-0.35
-0.17
0.03
0.17
0.20
0.11
-0.03
-0.15
-0.21
-0.20
-0.17
-0.17
-0.23
-0.31
-0.36
-0.34
-0.24
-0.11
0.02
0.14
0.26
0.43
0.62
0.81
0.94
0.98
0.92
0.79
0.61
0.39
0.16
-0.08
-0.26
-0.35
-0.32
-0.22
-0.09
-0.01
0.02
-0.00
-0.02
0.01
0.08
0.17
0.23
0.22
0.17
0.11
0.10
0.14
0.23
0.32
0.36
0.33
0.23
0.07
-0.10
-0.26
-0.36
-0.38
-0.29
-0.13
0.04
0.14
0.12
-0.00
-0.14
-0.20
-0.13
0.04
0.20
0.31
0.36
0.41
0.52
0.71
0.88
0.93
0.80
0.52
0.19
-0.09
-0.25
-0.30
-0.29
-0.27
-0.23
-0.18
-0.11
-0.03
0.01
-0.02
-0.11
-0.24
-0.37
-0.51
-0.64
-0.75
-0.81
-0.77
-0.59
-0.29
0.04
0.30
0.39
0.30
0.08
-0.15
-0.28
-0.33
-0.33
-0.39
-0.51
-0.65
-0.72
-0.62
-0.40
-0.14
0.01
-0.02
-0.25
-0.57
-0.89
-1.11
-1.20
-1.19
-1.10
-0.95
-0.75
-0.52
-0.29
-0.13
-0.07
-0.10
-0.18
-0.19
-0.06
0.24
0.64
1.01
1.24
1.27
1.17
1.04
0.98
1.02
1.13
1.22
1.26
1.22
1.11
0.96
0.75
0.50
0.21
-0.04
-0.18
-0.16
0.02
0.24
0.37
0.33
0.12
-0.12
-0.29
-0.29
-0.18
-0.05
-0.03
-0.15
-0.33
-0.48
-0.51
-0.44
-0.34
-0.30
-0.31
-0.33
-0.26
-0.08
0.16
0.35
0.43
0.38
0.30
0.29
0.37
0.50
0.59
0.53
0.29
-0.07
-0.44
-0.73
-0.86
-0.82
-0.64
-0.39
-0.15
0.01
0.09
0.08
0.05
0.02
0.00
-0.03
-0.10
-0.20
-0.27
-0.26
-0.13
0.11
0.39
0.61
0.69
0.60
0.37
0.07
-0.20
-0.37
-0.39
-0.29
-0.16
-0.12
-0.21
-0.41
-0.63
-0.74
-0.67
-0.44
-0.17
0.04
0.14
0.17
0.23
0.35
0.49
0.54
0.41
0.10
-0.28
-0.57
-0.66
-0.55
-0.33
-0.12
-0.00
0.02
0.00
-0.04
-0.11
-0.22
-0.35
-0.46
-0.49
-0.42
-0.29
-0.14
-0.04
0.03
0.11
0.23
0.40
0.58
0.71
0.76
0.71
0.62
0.52
0.44
0.39
0.36
0.32
0.27
0.22
0.15
0.09
0.02
-0.04
-0.10
-0.15
-0.18
-0.18
-0.15
-0.12
-0.12
-0.15
-0.20
-0.23
-0.20
-0.15
-0.11
-0.11
-0.17
-0.25
-0.31
-0.32
-0.30
-0.28
-0.31
-0.40
-0.47
-0.46
-0.33
-0.09
0.19
0.41
0.51
0.49
0.36
0.19
0.03
-0.06
-0.07
0.03
0.22
0.45
0.66
0.76
0.70
0.51
0.27
0.06
-0.05
-0.07
-0.07
-0.09
-0.17
-0.24
-0.23
-0.09
0.16
0.45
0.72
0.91
0.98
0.90
0.64
0.17
-0.43
-1.03
-1.46
-1.58
-1.39
-1.00
-0.57
-0.25
-0.05
0.11
0.28
0.48
0.58
0.48
0.14
-0.34
-0.75
-0.92
-0.79
-0.48
-0.18
-0.03
-0.04
-0.12
-0.19
-0.18
-0.15
-0.15
-0.20
-0.26
-0.25
-0.10
0.15
0.42
0.64
0.77
0.84
0.90
0.96
1.01
1.00
0.90
0.71
0.44
0.14
-0.12
-0.27
-0.27
-0.13
0.10
0.31
0.39
0.32
0.09
-0.21
-0.51
-0.76
-0.94
-1.04
-1.05
-0.97
-0.77
-0.50
-0.20
0.05
0.17
0.13
-0.04
-0.24
-0.36
-0.32
-0.11
0.17
0.39
0.44
0.32
0.12
-0.04
-0.06
0.01
0.09
0.07
-0.08
-0.30
-0.46
-0.48
-0.32
-0.05
0.24
0.50
0.71
0.90
1.05
1.14
1.10
0.93
0.65
0.36
0.15
0.04
0.01
-0.03
-0.15
-0.37
-0.64
-0.89
-1.04
-1.09
-1.05
-0.94
-0.79
-0.59
-0.35
-0.10
0.11
0.22
0.19
0.04
-0.19
-0.40
-0.53
-0.53
-0.40
-0.16
0.12
0.36
0.47
0.40
0.16
-0.14
-0.36
-0.41
-0.26
0.00
0.23
0.32
0.25
0.12
0.03
0.07
0.24
0.46
0.63
0.69
0.63
0.48
0.27
0.04
-0.15
-0.26
-0.25
-0.11
0.09
0.30
0.44
0.46
0.38
0.25
0.12
0.04
0.03
0.06
0.12
0.16
0.17
0.17
0.19
0.23
0.29
0.32
0.29
0.19
0.07
-0.00
0.03
0.17
0.36
0.48
0.48
0.33
0.09
-0.18
-0.39
-0.53
-0.58
-0.54
-0.43
-0.26
-0.07
0.08
0.16
0.17
0.11
0.03
-0.04
-0.06
-0.00
0.15
0.39
0.68
0.94
1.08
1.06
0.86
0.54
0.20
-0.08
-0.26
-0.36
-0.43
-0.47
-0.47
-0.41
-0.31
-0.21
-0.21
-0.34
-0.60
-0.86
-0.99
-0.89
-0.54
-0.04
0.44
0.77
0.88
0.81
0.67
0.55
0.51
0.49
0.42
0.21
-0.13
-0.50
-0.79
-0.90
-0.82
-0.64
-0.48
-0.42
-0.48
-0.58
-0.62
-0.55
-0.36
-0.14
0.04
0.12
0.11
0.08
0.10
0.22
0.38
0.51
0.51
0.33
0.00
-0.35
-0.62
-0.71
-0.65
-0.55
-0.50
-0.54
-0.63
-0.66
-0.51
-0.19
0.25
0.64
0.87
0.87
0.70
0.48
0.32
0.28
0.33
0.37
0.33
0.20
0.05
-0.04
0.02
0.23
0.50
0.70
0.69
0.44
0.00
-0.49
-0.87
-1.03
-0.95
-0.71
-0.42
-0.19
-0.05
0.03
0.07
0.12
0.16
0.13
0.02
-0.17
-0.39
-0.54
-0.55
-0.39
-0.12
0.17
0.40
0.51
0.52
0.47
0.40
0.31
0.21
0.08
-0.04
-0.11
-0.07
0.08
0.29
0.51
0.64
0.66
0.58
0.45
0.31
0.20
0.11
0.04
-0.03
-0.12
-0.20
-0.25
-0.26
-0.20
-0.11
-0.02
0.04
0.05
0.00
-0.10
-0.28
-0.52
-0.79
-1.02
-1.14
-1.05
-0.79
-0.41
-0.03
0.26
0.40
0.40
0.29
0.08
-0.19
-0.48
-0.72
-0.82
-0.70
-0.35
0.16
0.71
1.15
1.39
1.38
1.14
0.77
0.37
0.06
-0.07
-0.01
0.21
0.49
0.74
0.84
0.76
0.49
0.10
-0.29
-0.59
-0.69
-0.59
-0.36
-0.10
0.09
0.16
0.13
0.03
-0.05
-0.10
-0.09
-0.02
0.09
0.24
0.39
0.52
0.57
0.51
0.33
0.06
-0.24
-0.52
-0.71
-0.79
-0.76
-0.65
-0.53
-0.47
-0.51
-0.64
-0.77
-0.82
-0.75
-0.59
-0.46
-0.48
-0.72
-1.15
-1.67
-2.14
-2.46
-2.55
-2.42
-2.07
-1.56
-0.91
-0.19
0.51
1.11
1.53
1.69
1.59
1.25
0.77
0.25
-0.18
-0.44
-0.49
-0.36
-0.12
0.13
0.28
0.27
0.08
-0.26
-0.68
-1.11
-1.47
-1.75
-1.95
-2.08
-2.16
-2.24
-2.37
-2.61
-2.98
-3.43
-3.80
-3.89
-3.53
-2.67
-1.44
-0.08
1.16
2.07
2.61
2.82
2.86
2.84
2.84
2.88
2.93
2.93
2.89
2.80
2.69
2.58
2.45
2.28
2.04
1.76
1.51
1.37
1.37
1.47
1.53
1.46
1.18
0.74
0.26
-0.16
-0.42
-0.51
-0.47
-0.33
-0.13
0.07
0.22
0.26
0.17
-0.01
-0.21
-0.34
-0.33
-0.22
-0.05
0.10
0.19
0.22
0.21
0.19
0.21
0.26
0.32
0.39
0.43
0.42
0.38
0.32
0.28
0.26
0.27
0.28
0.28
0.24
0.16
0.05
-0.05
-0.12
-0.12
-0.04
0.09
0.21
0.26
0.24
0.17
0.14
0.18
0.28
0.38
0.38
0.22
-0.04
-0.30
-0.42
-0.37
-0.19
0.01
0.10
0.05
-0.09
-0.26
-0.39
-0.45
-0.46
-0.44
-0.40
-0.32
-0.21
-0.06
0.12
0.30
0.44
0.51
0.46
0.28
0.00
-0.29
-0.48
-0.47
-0.27
0.04
0.34
0.53
0.60
0.58
0.54
0.48
0.37
0.19
-0.10
-0.44
-0.72
-0.85
-0.77
-0.51
-0.21
0.00
0.05
-0.06
-0.25
-0.39
-0.43
-0.37
-0.27
-0.21
-0.22
-0.28
-0.35
-0.42
-0.49
-0.55
-0.61
-0.61
-0.51
-0.32
-0.10
0.04
0.07
0.02
0.01
0.14
0.42
0.72
0.90
0.86
0.64
0.39
0.29
0.41
0.69
0.97
1.12
1.08
0.91
0.71
0.54
0.40
0.21
-0.06
-0.38
-0.65
-0.77
-0.66
-0.39
-0.07
0.18
0.29
0.27
0.17
0.07
0.00
-0.03
-0.05
-0.10
-0.18
-0.28
-0.34
-0.30
-0.13
0.16
0.50
0.75
0.79
0.59
0.23
-0.13
-0.32
-0.26
0.01
0.34
0.57
0.63
0.52
0.28
-0.01
-0.32
-0.60
-0.80
-0.87
-0.78
-0.55
-0.25
0.01
0.16
0.18
0.10
-0.00
-0.06
-0.05
0.03
0.13
0.21
0.22
0.17
0.10
0.08
0.15
0.32
0.50
0.57
0.42
0.05
-0.42
-0.83
-1.03
-0.96
-0.71
-0.40
-0.14
0.04
0.16
0.28
0.41
0.48
0.45
0.29
0.10
-0.01
0.02
0.18
0.36
0.44
0.36
0.17
-0.04
-0.16
-0.20
-0.20
-0.23
-0.33
-0.45
-0.52
-0.50
-0.41
-0.27
-0.14
-0.04
0.05
0.12
0.14
0.08
-0.05
-0.22
-0.36
-0.40
-0.30
-0.08
0.19
0.43
0.58
0.64
0.61
0.55
0.43
0.27
0.07
-0.13
-0.27
-0.29
-0.19
-0.00
0.19
0.32
0.35
0.29
0.21
0.16
0.19
0.29
0.38
0.40
0.29
0.03
-0.30
-0.59
-0.70
-0.58
-0.29
0.01
0.13
-0.02
-0.41
-0.84
-1.12
-1.11
-0.82
-0.42
-0.10
-0.01
-0.17
-0.48
-0.80
-1.02
-1.07
-0.97
-0.77
-0.52
-0.25
0.02
0.25
0.39
0.39
0.28
0.10
-0.04
-0.04
0.11
0.37
0.66
0.90
1.04
1.09
1.07
0.99
0.87
0.72
0.53
0.37
0.28
0.27
0.34
0.41
0.41
0.30
0.08
-0.21
-0.50
-0.73
-0.86
-0.84
-0.68
-0.38
-0.00
0.34
0.55
0.58
0.44
0.24
0.11
0.10
0.21
0.34
0.39
0.33
0.21
0.12
0.12
0.20
0.27
0.23
0.04
-0.25
-0.49
-0.58
-0.49
-0.30
-0.11
-0.02
-0.04
-0.09
-0.09
0.01
0.18
0.33
0.42
0.40
0.32
0.20
0.07
-0.07
-0.22
-0.36
-0.47
-0.51
-0.45
-0.33
-0.19
-0.10
-0.10
-0.19
-0.31
-0.39
-0.36
-0.25
-0.10
0.01
0.03
-0.02
-0.11
-0.16
-0.15
-0.09
-0.01
0.05
0.11
0.20
0.33
0.47
0.58
0.60
0.50
0.32
0.11
-0.08
-0.23
-0.37
-0.53
-0.71
-0.86
-0.91
-0.84
-0.65
-0.41
-0.17
-0.00
0.10
0.15
0.14
0.06
-0.07
-0.23
-0.34
-0.30
-0.07
0.31
0.71
0.98
1.00
0.76
0.34
-0.11
-0.43
-0.55
-0.45
-0.21
0.06
0.26
0.35
0.34
0.26
0.17
0.09
0.07
0.09
0.17
0.30
0.45
0.58
0.58
0.42
0.11
-0.24
-0.45
-0.42
-0.14
0.24
0.52
0.58
0.38
0.06
-0.23
-0.36
-0.33
-0.23
-0.14
-0.10
-0.08
-0.05
-0.00
0.04
0.01
-0.11
-0.27
-0.40
-0.42
-0.31
-0.13
0.06
0.21
0.29
0.30
0.25
0.13
-0.06
-0.27
-0.44
-0.49
-0.41
-0.22
-0.01
0.14
0.23
0.30
0.42
0.60
0.81
0.94
0.89
0.66
0.32
-0.01
-0.24
-0.32
-0.30
-0.23
-0.15
-0.07
0.01
0.07
0.10
0.08
0.03
-0.03
-0.10
-0.17
-0.22
-0.25
-0.22
-0.14
-0.05
0.00
-0.06
-0.21
-0.37
-0.42
-0.29
0.02
0.37
0.61
0.66
0.51
0.28
0.09
-0.01
0.00
0.03
0.03
-0.03
-0.10
-0.15
-0.12
-0.02
0.12
0.26
0.36
0.42
0.43
0.38
0.29
0.16
0.04
-0.06
-0.13
-0.18
-0.24
-0.33
-0.46
-0.55
-0.58
-0.53
-0.42
-0.31
-0.24
-0.21
-0.22
-0.23
-0.25
-0.27
-0.30
-0.30
-0.25
-0.13
0.05
0.21
0.30
0.26
0.08
-0.21
-0.54
-0.85
-1.10
-1.25
-1.34
-1.38
-1.41
-1.48
-1.58
-1.68
-1.74
-1.71
-1.62
-1.54
-1.55
-1.74
-2.14
-2.70
-3.28
-3.71
-3.86
-3.75
-3.53
-3.50
-3.99
-5.14
-6.86
-8.79
-10.40
-11.28
-11.33
-10.88
-10.58
-11.12
-12.93
-15.90
-19.43
-22.62
-24.71
-25.45
-25.27
-25.14
-26.13
-28.91
-33.39
-38.69
-43.54
-46.83
-48.13
-47.89
-47.21
-47.47
-49.90
-55.30
-63.88
-74.89
-86.21
-94.21
-94.37
-82.88
-58.49
-23.74
15.36
51.33
78.03
92.76
96.71
93.65
87.62
81.26
75.27
69.28
62.96
56.77
51.74
48.70
47.62
47.52
46.90
44.63
40.41
34.97
29.61
25.56
23.41
22.87
22.96
22.55
20.83
17.72
13.81
10.06
7.31
5.95
5.78
6.17
6.37
5.92
4.75
3.19
1.75
0.82
0.52
0.70
1.01
1.12
0.85
0.21
-0.61
-1.37
-1.86
-1.97
-1.74
-1.29
-0.79
-0.40
-0.21
-0.22
-0.37
-0.56
-0.67
-0.63
-0.43
-0.13
0.17
0.33
0.31
0.10
-0.20
-0.48
-0.65
-0.64
-0.49
-0.27
-0.06
0.08
0.10
0.02
-0.13
-0.29
-0.41
-0.48
-0.54
-0.61
-0.68
-0.69
-0.57
-0.30
0.05
0.37
0.52
0.46
0.24
-0.00
-0.16
-0.18
-0.12
-0.04
0.01
-0.00
-0.05
-0.12
-0.20
-0.29
-0.40
-0.50
-0.58
-0.62
-0.64
-0.67
-0.75
-0.90
-1.09
-1.29
-1.43
-1.47
-1.41
-1.32
-1.27
-1.34
-1.55
-1.89
-2.31
-2.73
-3.08
-3.32
-3.44
-3.45
-3.39
-3.33
-3.34
-3.48
-3.72
-4.02
-4.30
-4.52
-4.69
-4.91
-5.32
-5.99
-6.94
-8.06
-9.18
-10.07
-10.46
-10.08
-8.74
-6.38
-3.15
0.54
4.12
7.00
8.82
9.52
9.33
8.61
7.70
6.82
6.04
5.39
4.86
4.46
4.17
3.90
3.54
3.03
2.37
1.69
1.19
1.09
1.50
2.41
3.64
4.90
5.92
6.46
6.45
5.96
5.16
4.28
3.51
2.97
2.66
2.52
2.42
2.27
2.00
1.62
1.19
0.80
0.54
0.44
0.51
0.68
0.86
0.98
0.98
0.88
0.73
0.60
0.53
0.54
0.57
0.58
0.50
0.34
0.18
0.11
0.20
0.46
0.81
1.13
1.33
1.37
1.32
1.26
1.27
1.37
1.51
1.59
1.60
1.58
1.64
1.83
2.11
2.37
2.44
2.24
1.83
1.40
1.14
1.18
1.46
1.79
1.96
1.84
1.48
1.06
0.80
0.83
1.14
1.60
2.08
2.49
2.87
3.30
3.87
4.58
5.36
6.11
6.77
7.28
7.60
7.64
7.24
6.20
4.41
1.93
-0.98
-3.91
-6.41
-8.18
-9.13
-9.36
-9.06
-8.48
-7.77
-7.03
-6.32
-5.73
-5.29
-5.02
-4.85
-4.70
-4.46
-4.13
-3.72
-3.33
-3.03
-2.84
-2.76
-2.72
-2.67
-2.56
-2.34
-2.00
-1.55
-1.07
-0.66
-0.40
-0.32
-0.38
-0.46
-0.49
-0.41
-0.28
-0.14
-0.06
-0.06
-0.12
-0.22
-0.37
-0.53
-0.68
-0.77
-0.75
-0.63
-0.42
-0.21
-0.03
0.09
0.15
0.17
0.17
0.15
0.13
0.09
0.03
-0.07
-0.21
-0.38
-0.53
-0.62
-0.63
-0.58
-0.51
-0.46
-0.44
-0.41
-0.33
-0.19
-0.00
0.17
0.26
0.24
0.13
-0.03
-0.18
-0.26
-0.25
-0.18
-0.09
-0.00
0.06
0.14
0.28
0.51
0.77
0.96
0.97
0.77
0.42
0.08
-0.09
-0.03
0.23
0.54
0.75
0.72
0.44
0.01
-0.47
-0.83
-0.99
-0.91
-0.64
-0.26
0.13
0.46
0.66
0.71
0.65
0.54
0.43
0.40
0.47
0.62
0.83
1.04
1.19
1.20
1.04
0.69
0.18
-0.39
-0.89
-1.21
-1.28
-1.13
-0.82
-0.47
-0.15
0.03
0.04
-0.09
-0.31
-0.52
-0.66
-0.69
-0.66
-0.60
-0.54
-0.48
-0.39
-0.26
-0.16
-0.16
-0.33
-0.67
-1.06
-1.35
-1.39
-1.16
-0.71
-0.17
0.33
0.72
0.95
1.02
0.96
0.80
0.58
0.36
0.20
0.11
0.06
0.00
-0.08
-0.18
-0.25
-0.23
-0.11
0.09
0.31
0.51
0.65
0.73
0.75
0.69
0.56
0.36
0.12
-0.10
-0.25
-0.31
-0.28
-0.19
-0.07
0.07
0.19
0.27
0.29
0.22
0.11
0.00
-0.04
0.02
0.13
0.26
0.33
0.31
0.19
-0.03
-0.30
-0.58
-0.77
-0.75
-0.46
0.04
0.60
0.99
1.04
0.74
0.22
-0.30
-0.61
-0.66
-0.52
-0.33
-0.23
-0.25
-0.37
-0.48
-0.52
-0.43
-0.20
0.14
0.52
0.85
1.06
1.10
1.00
0.79
0.52
0.23
-0.02
-0.20
-0.31
-0.36
-0.42
-0.51
-0.63
-0.68
-0.61
-0.37
-0.03
0.27
0.40
0.28
-0.04
-0.43
-0.73
-0.84
-0.77
-0.59
-0.39
-0.23
-0.12
-0.07
-0.07
-0.09
-0.09
-0.02
0.16
0.42
0.68
0.85
0.89
0.83
0.69
0.52
0.32
0.05
-0.32
-0.71
-1.00
-1.06
-0.86
-0.50
-0.16
0.00
-0.03
-0.16
-0.20
-0.07
0.22
0.51
0.67
0.63
0.46
0.30
0.28
0.43
0.65
0.83
0.87
0.76
0.54
0.27
0.00
-0.27
-0.52
-0.72
-0.81
-0.78
-0.61
-0.36
-0.11
0.09
0.17
0.15
0.03
-0.18
-0.43
-0.65
-0.77
-0.70
-0.44
-0.04
0.39
0.74
0.94
0.94
0.78
0.47
0.07
-0.36
-0.74
-0.99
-1.06
-0.96
-0.76
-0.51
-0.28
-0.06
0.12
0.27
0.38
0.46
0.54
0.64
0.78
0.92
0.97
0.85
0.53
0.07
-0.38
-0.65
-0.62
-0.27
0.28
0.83
1.15
1.12
0.73
0.12
-0.49
-0.88
-0.97
-0.76
-0.38
0.03
0.34
0.50
0.47
0.28
-0.04
-0.38
-0.64
-0.72
-0.57
-0.26
0.06
0.23
0.20
-0.02
-0.29
-0.45
-0.41
-0.21
0.06
0.25
0.28
0.18
0.03
-0.06
-0.04
0.04
0.08
-0.01
-0.22
-0.46
-0.57
-0.49
-0.22
0.13
0.43
0.57
0.55
0.42
0.27
0.15
0.09
0.08
0.06
0.01
-0.10
-0.23
-0.32
-0.33
-0.25
-0.10
0.06
0.22
0.35
0.48
0.60
0.68
0.67
0.54
0.32
0.05
-0.18
-0.36
-0.47
-0.58
-0.71
-0.86
-0.98
-1.04
-1.03
-0.95
-0.82
-0.61
-0.33
0.01
0.37
0.66
0.83
0.86
0.79
0.68
0.56
0.43
0.24
-0.01
-0.29
-0.48
-0.50
-0.30
0.04
0.34
0.45
0.33
0.05
-0.21
-0.28
-0.09
0.26
0.61
0.82
0.82
0.66
0.47
0.32
0.22
0.09
-0.13
-0.46
-0.76
-0.91
-0.79
-0.44
-0.02
0.27
0.27
-0.03
-0.47
-0.86
-1.03
-0.93
-0.66
-0.35
-0.09
0.08
0.24
0.44
0.71
1.00
1.21
1.27
1.17
0.96
0.75
0.57
0.42
0.22
-0.09
-0.47
-0.85
-1.11
-1.19
-1.09
-0.89
-0.67
-0.48
-0.36
-0.31
-0.32
-0.38
-0.45
-0.47
-0.35
-0.06
0.37
0.85
1.22
1.39
1.33
1.08
0.73
0.35
-0.01
-0.29
-0.45
-0.42
-0.19
0.17
0.51
0.66
0.51
0.08
-0.46
-0.88
-1.00
-0.82
-0.46
-0.10
0.08
0.09
-0.01
-0.10
-0.14
-0.16
-0.25
-0.45
-0.70
-0.87
-0.85
-0.63
-0.27
0.08
0.31
0.41
0.45
0.51
0.62
0.76
0.83
0.78
0.59
0.29
-0.03
-0.27
-0.36
-0.25
0.02
0.35
0.60
0.65
0.48
0.17
-0.14
-0.31
-0.27
-0.08
0.14
0.29
0.31
0.24
0.16
0.14
0.20
0.31
0.38
0.36
0.24
0.06
-0.13
-0.27
-0.34
-0.35
-0.34
-0.32
-0.30
-0.28
-0.27
-0.26
-0.27
-0.26
-0.23
-0.16
-0.07
-0.01
-0.04
-0.17
-0.33
-0.42
-0.37
-0.15
0.13
0.36
0.40
0.21
-0.15
-0.55
-0.87
-1.02
-0.99
-0.81
-0.52
-0.16
0.25
0.68
1.07
1.34
1.44
1.35
1.10
0.77
0.44
0.14
-0.08
-0.23
-0.33
-0.38
-0.39
-0.39
-0.36
-0.32
-0.27
-0.19
-0.11
-0.01
0.10
0.21
0.33
0.41
0.42
0.29
0.04
-0.28
-0.56
-0.68
-0.60
-0.35
-0.05
0.18
0.26
0.19
0.03
-0.15
-0.30
-0.41
-0.49
-0.54
-0.55
-0.49
-0.35
-0.12
0.17
0.48
0.73
0.82
0.73
0.48
0.14
-0.17
-0.35
-0.37
-0.23
-0.00
0.27
0.51
0.66
0.67
0.53
0.23
-0.16
-0.50
-0.69
-0.68
-0.50
-0.26
-0.09
-0.04
-0.10
-0.19
-0.23
-0.19
-0.09
0.03
0.12
0.19
0.25
0.31
0.36
0.35
0.28
0.16
0.03
-0.05
-0.04
0.02
0.08
0.12
0.15
0.20
0.31
0.46
0.57
0.53
0.29
-0.11
-0.54
-0.84
-0.91
-0.78
-0.58
-0.42
-0.39
-0.46
-0.53
-0.52
-0.41
-0.27
-0.15
-0.09
-0.03
0.10
0.32
0.56
0.67
0.54
0.18
-0.27
-0.56
-0.54
-0.22
0.23
0.58
0.67
0.50
0.23
0.03
0.01
0.17
0.39
0.55
0.57
0.45
0.22
-0.04
-0.30
-0.50
-0.56
-0.46
-0.19
0.18
0.51
0.68
0.65
0.42
0.10
-0.24
-0.52
-0.70
-0.78
-0.75
-0.62
-0.40
-0.13
0.12
0.27
0.31
0.24
0.14
0.06
0.02
0.03
0.06
0.10
0.15
0.21
0.26
0.28
0.25
0.16
0.07
0.02
0.05
0.15
0.28
0.39
0.43
0.41
0.33
0.22
0.10
-0.02
-0.13
-0.21
-0.29
-0.37
-0.47
-0.61
-0.73
-0.79
-0.76
-0.66
-0.53
-0.43
-0.35
-0.26
-0.13
0.06
0.25
0.36
0.31
0.13
-0.14
-0.36
-0.45
-0.37
-0.15
0.13
0.39
0.56
0.60
0.54
0.44
0.38
0.41
0.52
0.64
0.64
0.45
0.10
-0.33
-0.67
-0.81
-0.73
-0.51
-0.28
-0.17
-0.22
-0.38
-0.54
-0.62
-0.59
-0.46
-0.29
-0.11
0.07
0.25
0.46
0.65
0.78
0.77
0.59
0.29
-0.03
-0.23
-0.23
-0.02
0.30
0.59
0.73
0.69
0.51
0.29
0.12
0.03
0.01
0.07
0.19
0.40
0.66
0.93
1.10
1.08
0.80
0.30
-0.31
-0.88
-1.29
-1.47
-1.40
-1.14
-0.77
-0.36
-0.03
0.17
0.21
0.10
-0.08
-0.25
-0.36
-0.42
-0.44
-0.48
-0.53
-0.54
-0.46
-0.26
0.03
0.31
0.47
0.46
0.31
0.09
-0.07
-0.13
-0.10
-0.03
0.02
0.02
-0.02
-0.08
-0.14
-0.18
-0.19
-0.17
-0.10
-0.01
0.09
0.17
0.22
0.24
0.25
0.25
0.25
0.22
0.14
0.03
-0.07
-0.10
-0.05
0.10
0.28
0.44
0.53
0.51
0.41
0.28
0.19
0.18
0.26
0.41
0.57
0.66
0.66
0.55
0.37
0.15
-0.09
-0.35
-0.61
-0.84
-1.00
-1.02
-0.87
-0.59
-0.25
0.03
0.17
0.16
0.04
-0.10
-0.19
-0.19
-0.12
-0.02
0.09
0.19
0.29
0.41
0.57
0.70
0.75
0.66
0.42
0.09
-0.23
-0.41
-0.40
-0.19
0.10
0.38
0.53
0.52
0.38
0.17
-0.06
-0.24
-0.36
-0.43
-0.44
-0.38
-0.25
-0.06
0.17
0.35
0.42
0.34
0.12
-0.15
-0.37
-0.47
-0.45
-0.36
-0.32
-0.41
-0.67
-1.03
-1.39
-1.60
-1.54
-1.18
-0.57
0.11
0.65
0.89
0.79
0.45
0.07
-0.20
-0.28
-0.22
-0.09
0.05
0.18
0.34
0.55
0.78
0.98
1.05
0.97
0.74
0.43
0.14
-0.04
-0.06
0.05
0.23
0.35
0.36
0.21
-0.03
-0.21
-0.26
-0.16
0.04
0.19
0.20
0.05
-0.16
-0.32
-0.34
-0.23
-0.06
0.05
0.03
-0.12
-0.34
-0.51
-0.57
-0.53
-0.44
-0.36
-0.32
-0.27
-0.18
0.00
0.23
0.48
0.66
0.74
0.75
0.70
0.63
0.54
0.41
0.22
-0.00
-0.21
-0.32
-0.31
-0.17
0.04
0.27
0.45
0.55
0.58
0.57
0.54
0.48
0.34
0.08
-0.31
-0.75
-1.12
-1.26
-1.11
-0.68
-0.12
0.35
0.57
0.48
0.15
-0.25
-0.56
-0.70
-0.69
-0.58
-0.41
-0.20
0.05
0.26
0.34
0.20
-0.16
-0.60
-0.95
-1.05
-0.87
-0.55
-0.27
-0.15
-0.16
-0.17
-0.06
0.19
0.48
0.68
0.72
0.66
0.64
0.75
1.01
1.27
1.38
1.20
0.74
0.16
-0.36
-0.66
-0.70
-0.52
-0.27
-0.05
0.06
0.08
0.04
0.01
0.02
0.07
0.10
0.09
0.00
-0.13
-0.26
-0.31
-0.24
-0.07
0.11
0.22
0.19
0.01
-0.24
-0.45
-0.54
-0.47
-0.29
-0.07
0.08
0.14
0.10
0.03
-0.03
-0.07
-0.12
-0.22
-0.35
-0.48
-0.55
-0.52
-0.39
-0.19
0.05
0.28
0.47
0.59
0.60
0.48
0.25
-0.01
-0.18
-0.20
-0.07
0.11
0.21
0.19
0.08
0.00
0.03
0.18
0.33
0.36
0.22
-0.06
-0.32
-0.42
-0.29
0.01
0.30
0.42
0.33
0.08
-0.17
-0.30
-0.29
-0.18
-0.08
-0.05
-0.07
-0.07
-0.02
0.07
0.15
0.16
0.09
-0.01
-0.05
0.01
0.16
0.29
0.34
0.29
0.18
0.13
0.20
0.41
0.65
0.79
0.71
0.40
-0.02
-0.38
-0.52
-0.40
-0.12
0.15
0.25
0.12
-0.13
-0.38
-0.51
-0.50
-0.40
-0.30
-0.24
-0.23
-0.22
-0.21
-0.23
-0.32
-0.46
-0.61
-0.69
-0.62
-0.43
-0.18
0.02
0.08
0.01
-0.15
-0.32
-0.43
-0.41
-0.28
-0.05
0.24
0.52
0.73
0.79
0.67
0.39
0.02
-0.32
-0.51
-0.46
-0.20
0.20
0.58
0.81
0.81
0.59
0.24
-0.09
-0.29
-0.31
-0.16
0.08
0.31
0.44
0.42
0.25
-0.01
-0.25
-0.38
-0.35
-0.17
0.07
0.25
0.30
0.20
-0.02
-0.28
-0.48
-0.58
-0.56
-0.44
-0.25
-0.03
0.17
0.31
0.36
0.29
0.16
0.03
-0.03
0.02
0.17
0.36
0.51
0.56
0.48
0.30
0.05
-0.21
-0.43
-0.56
-0.55
-0.43
-0.24
-0.09
-0.07
-0.19
-0.37
-0.50
-0.48
-0.26
0.08
0.43
0.67
0.72
0.58
0.28
-0.07
-0.41
-0.65
-0.75
-0.70
-0.53
-0.27
0.02
0.29
0.50
0.60
0.57
0.43
0.24
0.05
-0.04
0.01
0.18
0.41
0.61
0.69
0.62
0.42
0.16
-0.08
-0.27
-0.38
-0.43
-0.45
-0.44
-0.36
-0.19
0.08
0.40
0.66
0.79
0.71
0.49
0.21
-0.03
-0.16
-0.19
-0.20
-0.23
-0.32
-0.42
-0.48
-0.47
-0.40
-0.30
-0.22
-0.18
-0.17
-0.17
-0.15
-0.12
-0.11
-0.12
-0.15
-0.14
-0.07
0.10
0.35
0.64
0.88
1.01
0.98
0.79
0.47
0.08
-0.31
-0.67
-0.96
-1.17
-1.24
-1.12
-0.81
-0.32
0.20
0.62
0.78
0.66
0.35
0.02
-0.17
-0.15
0.04
0.29
0.47
0.53
0.48
0.40
0.34
0.32
0.30
0.26
0.19
0.14
0.18
0.33
0.53
0.65
0.52
0.11
-0.49
-1.10
-1.49
-1.55
-1.33
-1.01
-0.77
-0.69
-0.71
-0.71
-0.56
-0.25
0.10
0.34
0.35
0.15
-0.15
-0.37
-0.38
-0.17
0.18
0.48
0.63
0.57
0.37
0.16
0.03
0.03
0.14
0.25
0.30
0.24
0.10
-0.05
-0.15
-0.17
-0.08
0.08
0.28
0.50
0.69
0.83
0.88
0.83
0.65
0.37
0.02
-0.32
-0.59
-0.73
-0.75
-0.70
-0.64
-0.60
-0.53
-0.41
-0.22
0.01
0.17
0.18
0.04
-0.20
-0.41
-0.52
-0.51
-0.43
-0.35
-0.29
-0.20
-0.04
0.20
0.48
0.71
0.82
0.80
0.65
0.41
0.10
-0.23
-0.52
-0.72
-0.75
-0.61
-0.33
-0.03
0.20
0.32
0.36
0.40
0.49
0.64
0.80
0.88
0.86
0.76
0.61
0.46
0.30
0.13
-0.04
-0.16
-0.16
-0.03
0.16
0.31
0.34
0.23
0.09
0.01
0.04
0.16
0.24
0.22
0.07
-0.12
-0.27
-0.30
-0.21
-0.07
0.05
0.11
0.08
-0.02
-0.16
-0.33
-0.48
-0.57
-0.58
-0.49
-0.34
-0.15
0.05
0.23
0.35
0.38
0.32
0.18
0.02
-0.12
-0.18
-0.16
-0.13
-0.13
-0.20
-0.32
-0.46
-0.55
-0.53
-0.40
-0.22
-0.05
0.06
0.10
0.09
0.07
0.08
0.14
0.22
0.26
0.27
0.27
0.28
0.33
0.42
0.49
0.50
0.44
0.33
0.24
0.22
0.25
0.30
0.29
0.19
0.01
-0.19
-0.34
-0.42
-0.43
-0.43
-0.47
-0.56
-0.68
-0.79
-0.85
-0.83
-0.75
-0.61
-0.43
-0.19
0.09
0.38
0.58
0.62
0.46
0.17
-0.13
-0.29
-0.24
-0.00
0.28
0.49
0.54
0.44
0.28
0.14
0.06
0.02
-0.03
-0.13
-0.25
-0.33
-0.32
-0.19
0.02
0.22
0.32
0.26
0.07
-0.15
-0.26
-0.17
0.11
0.48
0.80
0.95
0.88
0.65
0.32
-0.05
-0.41
-0.75
-1.02
-1.18
-1.17
-0.98
-0.66
-0.28
0.06
0.30
0.42
0.43
0.36
0.26
0.14
0.04
-0.02
-0.04
-0.02
0.00
0.01
0.00
0.00
0.04
0.13
0.27
0.42
0.55
0.62
0.59
0.49
0.32
0.14
-0.05
-0.24
-0.42
-0.60
-0.74
-0.76
-0.62
-0.34
0.01
0.27
0.32
0.12
-0.26
-0.70
-1.02
-1.10
-0.93
-0.56
-0.12
0.27
0.51
0.55
0.44
0.26
0.13
0.12
0.22
0.33
0.35
0.22
-0.04
-0.31
-0.48
-0.51
-0.44
-0.34
-0.27
-0.25
-0.23
-0.16
0.00
0.23
0.46
0.61
0.64
0.57
0.46
0.41
0.46
0.60
0.75
0.82
0.71
0.43
0.03
-0.33
-0.55
-0.59
-0.52
-0.43
-0.42
-0.50
-0.60
-0.61
-0.48
-0.23
0.06
0.30
0.42
0.41
0.31
0.16
0.00
-0.14
-0.23
-0.27
-0.23
-0.14
-0.04
0.01
-0.03
-0.17
-0.39
-0.60
-0.73
-0.73
-0.56
-0.27
0.07
0.39
0.62
0.73
0.71
0.59
0.41
0.24
0.16
0.23
0.42
0.69
0.94
1.07
1.04
0.88
0.65
0.39
0.14
-0.08
-0.26
-0.40
-0.51
-0.58
-0.64
-0.70
-0.76
-0.80
-0.79
-0.70
-0.49
-0.20
0.14
0.47
0.75
0.93
1.00
0.96
0.81
0.61
0.40
0.24
0.17
0.17
0.20
0.19
0.12
0.01
-0.08
-0.05
0.10
0.30
0.44
0.40
0.16
-0.20
-0.55
-0.75
-0.75
-0.58
-0.34
-0.13
-0.01
-0.00
-0.09
-0.23
-0.36
-0.45
-0.46
-0.39
-0.28
-0.15
-0.05
0.04
0.11
0.19
0.27
0.28
0.21
0.04
-0.16
-0.31
-0.33
-0.24
-0.09
-0.00
-0.02
-0.13
-0.21
-0.18
0.03
0.37
0.73
0.97
0.98
0.74
0.27
-0.33
-0.92
-1.39
-1.64
-1.63
-1.39
-1.00
-0.54
-0.13
0.17
0.32
0.32
0.18
-0.04
-0.29
-0.46
-0.47
-0.29
0.05
0.44
0.75
0.90
0.84
0.65
0.40
0.21
0.11
0.12
0.22
0.36
0.49
0.54
0.50
0.37
0.19
0.01
-0.13
-0.20
-0.23
-0.25
-0.29
-0.36
-0.43
-0.45
-0.37
-0.20
0.04
0.28
0.45
0.50
0.40
0.20
-0.04
-0.26
-0.40
-0.43
-0.33
-0.13
0.14
0.40
0.58
0.59
0.44
0.19
-0.04
-0.17
-0.14
0.01
0.19
0.33
0.39
0.41
0.41
0.43
0.46
0.44
0.35
0.21
0.09
0.02
0.01
0.04
0.05
0.01
-0.07
-0.18
-0.29
-0.42
-0.56
-0.68
-0.71
-0.60
-0.36
-0.06
0.17
0.26
0.18
0.03
-0.11
-0.16
-0.13
-0.10
-0.14
-0.28
-0.47
-0.63
-0.67
-0.56
-0.34
-0.07
0.15
0.27
0.29
0.24
0.18
0.15
0.15
0.14
0.11
0.07
0.02
0.00
0.01
0.02
0.01
-0.03
-0.09
-0.14
-0.16
-0.14
-0.08
-0.01
0.06
0.10
0.11
0.10
0.11
0.17
0.28
0.42
0.57
0.68
0.73
0.72
0.64
0.48
0.25
-0.02
-0.27
-0.45
-0.53
-0.51
-0.43
-0.36
-0.34
-0.35
-0.39
-0.42
-0.42
-0.38
-0.27
-0.10
0.11
0.32
0.46
0.46
0.32
0.09
-0.14
-0.29
-0.31
-0.24
-0.14
-0.07
-0.07
-0.12
-0.16
-0.16
-0.07
0.07
0.26
0.44
0.60
0.72
0.79
0.76
0.61
0.33
-0.01
-0.31
-0.46
-0.42
-0.21
0.01
0.13
0.03
-0.24
-0.58
-0.85
-0.95
-0.88
-0.68
-0.44
-0.22
-0.03
0.12
0.22
0.25
0.20
0.06
-0.12
-0.26
-0.29
-0.18
0.04
0.29
0.46
0.49
0.35
0.10
-0.18
-0.41
-0.55
-0.61
-0.60
-0.53
-0.41
-0.22
0.04
0.34
0.61
0.79
0.86
0.85
0.83
0.84
0.84
0.79
0.61
0.30
-0.09
-0.47
-0.77
-0.92
-0.93
-0.86
-0.75
-0.65
-0.55
-0.44
-0.31
-0.14
0.04
0.20
0.30
0.31
0.23
0.08
-0.06
-0.14
-0.14
-0.06
0.06
0.18
0.29
0.41
0.52
0.63
0.68
0.65
0.54
0.40
0.31
0.35
0.51
0.73
0.89
0.88
0.68
0.37
0.05
-0.19
-0.32
-0.35
-0.33
-0.30
-0.23
-0.13
-0.01
0.08
0.07
-0.06
-0.29
-0.51
-0.61
-0.52
-0.29
-0.01
0.17
0.17
-0.01
-0.27
-0.51
-0.63
-0.60
-0.46
-0.32
-0.24
-0.27
-0.36
-0.45
-0.45
-0.31
-0.09
0.11
0.15
-0.01
-0.30
-0.58
-0.68
-0.55
-0.27
0.04
0.25
0.34
0.39
0.50
0.68
0.90
1.03
1.00
0.81
0.55
0.31
0.14
0.03
-0.08
-0.22
-0.37
-0.51
-0.57
-0.59
-0.58
-0.57
-0.55
-0.47
-0.31
-0.09
0.10
0.17
0.06
-0.15
-0.33
-0.35
-0.16
0.14
0.40
0.50
0.41
0.24
0.10
0.08
0.18
0.33
0.46
0.53
0.55
0.54
0.47
0.32
0.07
-0.23
-0.47
-0.58
-0.50
-0.29
-0.08
0.04
0.04
-0.03
-0.06
0.01
0.16
0.29
0.29
0.09
-0.25
-0.61
-0.88
-0.95
-0.82
-0.56
-0.27
-0.03
0.13
0.26
0.40
0.56
0.69
0.69
0.49
0.06
-0.47
-0.93
-1.12
-0.97
-0.56
-0.05
0.34
0.51
0.49
0.39
0.34
0.35
0.37
0.27
0.02
-0.34
-0.66
-0.78
-0.62
-0.21
0.29
0.70
0.92
0.95
0.88
0.80
0.75
0.72
0.65
0.52
0.37
0.27
0.29
0.41
0.53
0.52
0.31
-0.10
-0.56
-0.91
-1.00
-0.81
-0.44
-0.07
0.17
0.19
0.00
-0.31
-0.62
-0.87
-0.99
-0.98
-0.87
-0.67
-0.42
-0.13
0.16
0.45
0.70
0.90
1.02
1.03
0.90
0.64
0.28
-0.09
-0.39
-0.57
-0.59
-0.47
-0.25
0.03
0.31
0.52
0.61
0.55
0.32
-0.00
-0.33
-0.56
-0.63
-0.53
-0.33
-0.13
0.01
0.07
0.08
0.10
0.13
0.14
0.09
-0.03
-0.16
-0.23
-0.20
-0.06
0.11
0.25
0.30
0.26
0.13
-0.05
-0.28
-0.51
-0.68
-0.74
-0.65
-0.44
-0.20
0.00
0.11
0.14
0.13
0.12
0.10
0.05
-0.04
-0.16
-0.27
-0.31
-0.27
-0.15
0.02
0.20
0.34
0.41
0.37
0.22
0.01
-0.18
-0.28
-0.24
-0.09
0.11
0.27
0.30
0.21
0.03
-0.17
-0.28
-0.22
0.02
0.39
0.75
0.96
0.91
0.62
0.18
-0.24
-0.52
-0.62
-0.57
-0.46
-0.33
-0.19
-0.01
0.19
0.38
0.49
0.50
0.42
0.31
0.22
0.16
0.10
0.04
-0.01
0.00
0.11
0.30
0.49
0.55
0.43
0.13
-0.23
-0.54
-0.74
-0.84
-0.89
-0.93
-0.95
-0.93
-0.81
-0.60
-0.32
-0.03
0.23
0.41
0.46
0.37
0.16
-0.07
-0.24
-0.27
-0.17
0.00
0.12
0.12
0.04
-0.04
-0.02
0.14
0.38
0.62
0.73
0.69
0.50
0.25
0.05
-0.02
0.04
0.16
0.22
0.16
-0.01
-0.17
-0.20
-0.02
0.31
0.64
0.79
0.67
0.34
-0.09
-0.44
-0.62
-0.60
-0.43
-0.19
0.01
0.10
0.02
-0.24
-0.61
-0.99
-1.26
-1.29
-1.05
-0.57
0.01
0.56
0.92
1.04
0.89
0.55
0.12
-0.28
-0.55
-0.64
-0.51
-0.23
0.13
0.42
0.54
0.43
0.16
-0.17
-0.41
-0.47
-0.35
-0.11
0.17
0.37
0.44
0.37
0.19
-0.02
-0.22
-0.36
-0.42
-0.40
-0.31
-0.16
0.02
0.23
0.46
0.71
0.95
1.19
1.37
1.47
1.46
1.34
1.18
1.11
1.23
1.62
2.23
2.93
3.54
3.99
4.29
4.65
5.29
6.39
7.91
9.66
11.29
12.47
13.02
13.02
12.81
12.88
13.69
15.41
17.84
20.41
22.47
23.60
23.86
23.90
24.60
26.72
30.40
35.08
39.71
43.22
45.06
45.42
45.16
45.49
47.59
52.21
59.42
68.47
77.56
83.97
84.44
76.21
58.24
32.02
1.58
-27.69
-50.91
-65.36
-71.22
-71.05
-68.24
-65.48
-63.87
-63.09
-62.26
-60.86
-59.08
-57.58
-56.85
-56.74
-56.46
-55.07
-52.02
-47.55
-42.71
-38.81
-36.75
-36.64
-37.70
-38.64
-38.38
-36.47
-33.36
-30.15
-28.01
-27.62
-28.90
-31.05
-33.06
-34.15
-34.12
-33.36
-32.41
-31.66
-31.12
-30.49
-29.40
-27.76
-25.78
-23.95
-22.91
-23.19
-25.20
-29.02
-34.32
-40.08
-44.55
-45.53
-41.04
-30.17
-13.75
5.78
24.99
40.75
51.19
56.16
56.86
55.07
52.25
49.14
45.89
42.43
38.89
35.60
32.96
31.14
29.93
28.84
27.37
25.23
22.50
19.57
16.89
14.83
13.45
12.55
11.77
10.77
9.37
7.62
5.73
3.96
2.53
1.57
1.10
1.14
1.60
2.39
3.29
4.05
4.45
4.36
3.83
3.05
2.26
1.64
1.25
1.00
0.75
0.40
-0.10
-0.71
-1.34
-1.91
-2.38
-2.77
-3.11
-3.45
-3.79
-4.08
-4.21
-4.08
-3.59
-2.71
-1.51
-0.16
1.17
2.28
3.04
3.38
3.27
2.75
1.94
0.98
0.11
-0.44
-0.49
0.03
1.03
2.32
3.67
4.83
5.64
6.06
6.13
5.96
5.66
5.37
5.13
4.97
4.83
4.64
4.31
3.81
3.19
2.51
1.89
1.41
1.13
1.08
1.23
1.49
1.76
1.93
1.90
1.67
1.32
0.95
0.67
0.54
0.53
0.55
0.52
0.41
0.21
-0.01
-0.25
-0.48
-0.70
-0.86
-0.91
-0.82
-0.59
-0.32
-0.11
-0.05
-0.14
-0.33
-0.52
-0.65
-0.68
-0.62
-0.52
-0.41
-0.29
-0.20
-0.14
-0.13
-0.18
-0.24
-0.29
-0.26
-0.17
-0.05
0.04
0.05
-0.05
-0.22
-0.39
-0.50
-0.52
-0.48
-0.40
-0.32
-0.22
-0.06
0.15
0.38
0.52
0.49
0.25
-0.13
-0.50
-0.71
-0.69
-0.46
-0.15
0.10
0.20
0.16
0.03
-0.11
-0.19
-0.19
-0.13
-0.03
0.10
0.24
0.39
0.50
0.53
0.46
0.30
0.09
-0.09
-0.19
-0.17
-0.08
0.04
0.12
0.14
0.14
0.14
0.19
0.29
0.41
0.51
0.53
0.46
0.32
0.15
0.01
-0.07
-0.08
-0.06
-0.05
-0.06
-0.04
0.02
0.12
0.23
0.27
0.21
0.04
-0.21
-0.45
-0.61
-0.63
-0.53
-0.35
-0.16
-0.04
-0.02
-0.08
-0.15
-0.18
-0.12
0.01
0.16
0.27
0.33
0.36
0.41
0.47
0.48
0.35
0.07
-0.32
-0.67
-0.85
-0.79
-0.49
-0.07
0.32
0.56
0.57
0.38
0.08
-0.20
-0.35
-0.32
-0.15
0.07
0.26
0.35
0.37
0.36
0.38
0.41
0.40
0.29
0.08
-0.17
-0.37
-0.42
-0.31
-0.11
0.06
0.10
-0.03
-0.26
-0.48
-0.60
-0.56
-0.43
-0.27
-0.16
-0.13
-0.15
-0.15
-0.08
0.05
0.18
0.23
0.14
-0.09
-0.40
-0.67
-0.83
-0.84
-0.70
-0.48
-0.26
-0.08
0.04
0.13
0.21
0.28
0.34
0.37
0.34
0.25
0.11
-0.04
-0.17
-0.20
-0.10
0.13
0.44
0.73
0.92
0.97
0.93
0.85
0.77
0.70
0.57
0.36
0.09
-0.17
-0.33
-0.34
-0.22
-0.07
0.02
-0.01
-0.13
-0.27
-0.33
-0.28
-0.14
0.03
0.11
0.04
-0.18
-0.47
-0.72
-0.82
-0.73
-0.49
-0.17
0.13
0.34
0.43
0.41
0.33
0.22
0.13
0.06
0.05
0.06
0.08
0.06
-0.02
-0.16
-0.30
-0.42
-0.47
-0.46
-0.42
-0.37
-0.35
-0.36
-0.38
-0.39
-0.33
-0.20
0.03
0.30
0.55
0.68
0.65
0.46
0.21
0.01
-0.05
0.02
0.12
0.15
0.03
-0.19
-0.39
-0.42
-0.22
0.18
0.65
1.03
1.19
1.11
0.84
0.49
0.16
-0.06
-0.15
-0.13
-0.06
0.00
-0.01
-0.12
-0.29
-0.44
-0.53
-0.51
-0.39
-0.21
-0.02
0.11
0.16
0.14
0.05
-0.09
-0.28
-0.51
-0.74
-0.94
-1.01
-0.92
-0.67
-0.33
-0.02
0.15
0.15
0.02
-0.13
-0.17
-0.09
0.06
0.15
0.10
-0.12
-0.39
-0.56
-0.50
-0.18
0.30
0.76
1.02
0.98
0.68
0.26
-0.12
-0.36
-0.42
-0.37
-0.26
-0.13
0.03
0.19
0.32
0.35
0.23
-0.02
-0.33
-0.55
-0.56
-0.34
0.05
0.43
0.68
0.71
0.55
0.31
0.11
0.03
0.07
0.18
0.30
0.36
0.37
0.32
0.25
0.16
0.02
-0.16
-0.38
-0.59
-0.74
-0.79
-0.73
-0.58
-0.37
-0.13
0.09
0.28
0.41
0.51
0.57
0.62
0.68
0.75
0.84
0.90
0.89
0.75
0.47
0.07
-0.36
-0.74
-0.97
-1.03
-0.93
-0.74
-0.54
-0.36
-0.22
-0.08
0.09
0.30
0.51
0.67
0.72
0.65
0.47
0.24
0.02
-0.15
-0.26
-0.34
-0.41
-0.46
-0.46
-0.39
-0.28
-0.18
-0.16
-0.24
-0.39
-0.53
-0.59
-0.56
-0.49
-0.44
-0.43
-0.43
-0.38
-0.23
-0.01
0.21
0.38
0.48
0.54
0.62
0.75
0.89
0.97
0.93
0.73
0.41
0.07
-0.21
-0.37
-0.42
-0.39
-0.36
-0.35
-0.34
-0.26
-0.08
0.22
0.56
0.83
0.94
0.83
0.56
0.26
0.06
0.04
0.18
0.38
0.48
0.39
0.12
-0.26
-0.60
-0.81
-0.84
-0.75
-0.59
-0.42
-0.26
-0.10
0.07
0.22
0.30
0.29
0.18
0.04
-0.05
-0.02
0.15
0.42
0.68
0.84
0.83
0.65
0.34
-0.02
-0.33
-0.53
-0.60
-0.55
-0.45
-0.35
-0.32
-0.36
-0.46
-0.56
-0.62
-0.63
-0.61
-0.59
-0.59
-0.63
-0.70
-0.77
-0.83
-0.82
-0.72
-0.50
-0.19
0.15
0.41
0.52
0.45
0.28
0.13
0.07
0.15
0.29
0.37
0.31
0.12
-0.14
-0.35
-0.41
-0.30
-0.06
0.17
0.30
0.28
0.14
-0.03
-0.11
-0.02
0.21
0.50
0.73
0.81
0.71
0.51
0.29
0.10
-0.02
-0.08
-0.11
-0.11
-0.07
0.02
0.13
0.25
0.37
0.49
0.62
0.75
0.86
0.85
0.68
0.32
-0.16
-0.61
-0.89
-0.93
-0.74
-0.42
-0.09
0.14
0.24
0.25
0.22
0.20
0.22
0.26
0.28
0.30
0.31
0.33
0.35
0.33
0.22
0.01
-0.27
-0.56
-0.77
-0.85
-0.81
-0.67
-0.48
-0.28
-0.09
0.07
0.18
0.22
0.18
0.06
-0.10
-0.24
-0.33
-0.38
-0.37
-0.31
-0.18
0.04
0.31
0.57
0.70
0.62
0.34
-0.03
-0.31
-0.37
-0.20
0.08
0.31
0.38
0.31
0.19
0.14
0.20
0.27
0.23
0.01
-0.36
-0.73
-0.96
-0.96
-0.75
-0.45
-0.19
-0.06
-0.06
-0.14
-0.22
-0.26
-0.25
-0.23
-0.20
-0.18
-0.13
-0.08
-0.03
-0.03
-0.10
-0.21
-0.31
-0.31
-0.17
0.06
0.32
0.56
0.74
0.86
0.91
0.88
0.76
0.55
0.29
0.02
-0.20
-0.34
-0.39
-0.33
-0.19
0.00
0.20
0.34
0.44
0.50
0.58
0.72
0.91
1.07
1.13
1.04
0.83
0.57
0.31
0.08
-0.12
-0.34
-0.55
-0.73
-0.80
-0.74
-0.53
-0.24
0.05
0.26
0.33
0.26
0.12
-0.06
-0.23
-0.37
-0.49
-0.58
-0.63
-0.63
-0.52
-0.31
-0.03
0.23
0.39
0.38
0.20
-0.07
-0.36
-0.57
-0.67
-0.68
-0.66
-0.63
-0.56
-0.42
-0.16
0.18
0.53
0.77
0.82
0.67
0.42
0.18
0.03
-0.01
-0.02
-0.05
-0.16
-0.33
-0.47
-0.50
-0.34
-0.04
0.31
0.57
0.63
0.49
0.20
-0.12
-0.36
-0.44
-0.36
-0.12
0.22
0.60
0.92
1.08
1.01
0.67
0.15
-0.40
-0.78
-0.86
-0.66
-0.34
-0.08
-0.05
-0.25
-0.56
-0.80
-0.81
-0.59
-0.23
0.14
0.42
0.57
0.62
0.59
0.50
0.35
0.14
-0.07
-0.26
-0.40
-0.52
-0.61
-0.68
-0.70
-0.64
-0.51
-0.36
-0.23
-0.14
-0.08
0.02
0.20
0.42
0.60
0.65
0.52
0.26
-0.03
-0.25
-0.34
-0.28
-0.14
0.02
0.14
0.19
0.14
0.01
-0.20
-0.40
-0.54
-0.54
-0.40
-0.15
0.12
0.33
0.44
0.47
0.46
0.45
0.44
0.41
0.30
0.13
-0.06
-0.20
-0.22
-0.13
0.02
0.14
0.19
0.15
0.07
0.01
0.03
0.12
0.26
0.40
0.50
0.50
0.38
0.13
-0.22
-0.61
-0.95
-1.14
-1.11
-0.82
-0.36
0.18
0.64
0.87
0.82
0.54
0.15
-0.16
-0.26
-0.11
0.19
0.48
0.61
0.52
0.26
-0.06
-0.33
-0.49
-0.55
-0.54
-0.49
-0.38
-0.20
0.04
0.29
0.47
0.54
0.47
0.34
0.21
0.17
0.20
0.27
0.30
0.26
0.19
0.09
0.01
-0.05
-0.09
-0.10
-0.03
0.13
0.36
0.60
0.74
0.69
0.46
0.12
-0.21
-0.46
-0.59
-0.63
-0.63
-0.62
-0.62
-0.62
-0.62
-0.60
-0.55
-0.43
-0.24
0.01
0.28
0.49
0.61
0.65
0.64
0.64
0.66
0.64
0.55
0.33
0.00
-0.38
-0.73
-0.96
-1.05
-0.96
-0.75
-0.47
-0.20
-0.02
0.04
-0.01
-0.15
-0.33
-0.49
-0.58
-0.56
-0.41
-0.14
0.18
0.46
0.61
0.60
0.46
0.27
0.14
0.15
0.26
0.43
0.54
0.57
0.52
0.44
0.35
0.28
0.20
0.10
-0.02
-0.14
-0.22
-0.21
-0.12
0.01
0.10
0.11
0.01
-0.14
-0.29
-0.37
-0.39
-0.37
-0.40
-0.48
-0.58
-0.61
-0.53
-0.33
-0.11
0.00
-0.07
-0.28
-0.52
-0.64
-0.59
-0.42
-0.27
-0.25
-0.37
-0.52
-0.54
-0.32
0.13
0.68
1.13
1.33
1.25
0.94
0.54
0.17
-0.10
-0.28
-0.37
-0.42
-0.44
-0.42
-0.35
-0.22
-0.02
0.21
0.44
0.62
0.72
0.76
0.75
0.75
0.78
0.83
0.85
0.77
0.56
0.24
-0.13
-0.45
-0.62
-0.61
-0.46
-0.24
-0.04
0.08
0.12
0.14
0.17
0.22
0.28
0.29
0.23
0.10
-0.09
-0.29
-0.46
-0.56
-0.59
-0.56
-0.50
-0.44
-0.37
-0.29
-0.16
0.01
0.19
0.32
0.33
0.20
-0.04
-0.30
-0.46
-0.45
-0.28
-0.01
0.28
0.50
0.62
0.67
0.68
0.69
0.72
0.77
0.81
0.79
0.69
0.48
0.17
-0.17
-0.44
-0.58
-0.54
-0.40
-0.24
-0.16
-0.18
-0.25
-0.30
-0.26
-0.14
0.03
0.20
0.34
0.41
0.39
0.25
-0.05
-0.47
-0.92
-1.28
-1.42
-1.30
-0.99
-0.63
-0.34
-0.19
-0.18
-0.20
-0.16
-0.03
0.19
0.41
0.57
0.60
0.51
0.33
0.11
-0.07
-0.18
-0.19
-0.13
-0.02
0.07
0.13
0.13
0.12
0.12
0.16
0.22
0.28
0.33
0.35
0.34
0.33
0.31
0.34
0.44
0.62
0.83
0.97
0.92
0.65
0.19
-0.30
-0.67
-0.81
-0.73
-0.51
-0.25
-0.02
0.14
0.25
0.30
0.24
0.05
-0.27
-0.66
-1.00
-1.17
-1.09
-0.74
-0.19
0.41
0.87
1.06
0.91
0.50
0.01
-0.39
-0.55
-0.47
-0.25
-0.01
0.11
0.10
-0.01
-0.12
-0.18
-0.16
-0.10
-0.06
-0.05
-0.09
-0.14
-0.20
-0.27
-0.34
-0.44
-0.55
-0.65
-0.71
-0.69
-0.55
-0.32
-0.02
0.26
0.47
0.57
0.57
0.55
0.56
0.67
0.83
0.95
0.95
0.78
0.51
0.25
0.11
0.12
0.25
0.40
0.49
0.47
0.34
0.11
-0.20
-0.52
-0.79
-0.91
-0.82
-0.49
-0.02
0.45
0.76
0.80
0.56
0.12
-0.36
-0.75
-0.95
-0.93
-0.71
-0.35
0.08
0.51
0.81
0.91
0.73
0.32
-0.22
-0.67
-0.86
-0.67
-0.15
0.50
1.04
1.24
1.04
0.54
-0.04
-0.49
-0.68
-0.60
-0.35
-0.04
0.22
0.33
0.27
0.06
-0.26
-0.59
-0.85
-0.99
-0.99
-0.88
-0.72
-0.53
-0.33
-0.15
-0.03
-0.00
-0.08
-0.22
-0.34
-0.35
-0.20
0.03
0.23
0.29
0.15
-0.15
-0.49
-0.76
-0.85
-0.74
-0.48
-0.14
0.19
0.43
0.55
0.53
0.38
0.14
-0.11
-0.29
-0.34
-0.20
0.07
0.38
0.62
0.68
0.57
0.39
0.25
0.26
0.40
0.56
0.63
0.51
0.25
-0.06
-0.28
-0.34
-0.26
-0.08
0.10
0.23
0.28
0.26
0.18
0.07
-0.03
-0.07
-0.06
-0.01
0.04
0.04
0.03
0.06
0.20
0.45
0.73
0.89
0.81
0.47
-0.05
-0.56
-0.90
-0.97
-0.77
-0.42
-0.06
0.19
0.28
0.25
0.18
0.15
0.22
0.37
0.52
0.60
0.56
0.40
0.20
0.01
-0.11
-0.17
-0.20
-0.23
-0.28
-0.30
-0.28
-0.19
-0.03
0.17
0.37
0.55
0.67
0.70
0.62
0.42
0.13
-0.18
-0.46
-0.63
-0.67
-0.56
-0.38
-0.16
0.01
0.11
0.12
0.08
0.02
-0.04
-0.09
-0.13
-0.18
-0.27
-0.37
-0.50
-0.65
-0.80
-0.95
-1.05
-1.05
-0.92
-0.67
-0.36
-0.09
0.05
0.05
-0.03
-0.06
0.03
0.28
0.60
0.87
0.99
0.93
0.74
0.52
0.33
0.20
0.11
0.01
-0.10
-0.17
-0.18
-0.11
-0.01
0.03
-0.02
-0.18
-0.38
-0.51
-0.49
-0.30
-0.01
0.27
0.48
0.57
0.57
0.52
0.46
0.41
0.35
0.28
0.21
0.19
0.27
0.42
0.60
0.67
0.55
0.24
-0.19
-0.62
-0.93
-1.08
-1.09
-1.01
-0.87
-0.71
-0.51
-0.32
-0.15
-0.04
0.00
0.03
0.11
0.27
0.48
0.66
0.72
0.62
0.37
0.09
-0.13
-0.23
-0.24
-0.23
-0.27
-0.39
-0.57
-0.72
-0.77
-0.68
-0.48
-0.23
-0.00
0.18
0.34
0.51
0.68
0.81
0.82
0.67
0.39
0.12
-0.01
0.08
0.36
0.68
0.86
0.80
0.50
0.08
-0.29
-0.55
-0.67
-0.71
-0.71
-0.68
-0.58
-0.38
-0.10
0.17
0.33
0.34
0.20
0.02
-0.10
-0.12
-0.06
0.02
0.08
0.09
0.08
0.10
0.15
0.21
0.24
0.22
0.18
0.12
0.06
0.01
-0.05
-0.13
-0.21
-0.30
-0.38
-0.47
-0.56
-0.62
-0.58
-0.38
-0.02
0.44
0.83
1.02
0.91
0.58
0.17
-0.16
-0.30
-0.26
-0.12
0.04
0.16
0.26
0.38
0.53
0.64
0.62
0.41
0.03
-0.39
-0.68
-0.74
-0.54
-0.19
0.09
0.17
0.00
-0.31
-0.59
-0.70
-0.58
-0.35
-0.13
-0.05
-0.09
-0.16
-0.15
-0.01
0.20
0.38
0.45
0.45
0.43
0.47
0.55
0.58
0.46
0.16
-0.20
-0.48
-0.58
-0.47
-0.28
-0.12
-0.08
-0.15
-0.23
-0.26
-0.20
-0.10
-0.00
0.04
0.02
-0.01
-0.00
0.07
0.20
0.34
0.43
0.39
0.19
-0.14
-0.50
-0.77
-0.83
-0.69
-0.42
-0.18
-0.05
-0.05
-0.09
-0.07
0.05
0.24
0.40
0.45
0.41
0.36
0.39
0.52
0.69
0.80
0.76
0.59
0.33
0.08
-0.13
-0.31
-0.49
-0.70
-0.89
-0.95
-0.80
-0.44
0.07
0.54
0.84
0.91
0.78
0.55
0.30
0.11
-0.04
-0.15
-0.26
-0.38
-0.53
-0.71
-0.92
-1.08
-1.12
-0.97
-0.64
-0.24
0.10
0.29
0.34
0.31
0.31
0.35
0.37
0.31
0.13
-0.10
-0.26
-0.28
-0.20
-0.11
-0.12
-0.25
-0.39
-0.39
-0.15
0.30
0.82
1.18
1.25
1.01
0.56
0.08
-0.30
-0.57
-0.76
-0.90
-0.99
-0.98
-0.81
-0.49
-0.14
0.09
0.07
-0.22
-0.68
-1.12
-1.34
-1.25
-0.85
-0.27
0.33
0.82
1.13
1.26
1.23
1.09
0.88
0.61
0.31
0.03
-0.20
-0.32
-0.31
-0.21
-0.06
0.05
0.11
0.11
0.11
0.16
0.30
0.48
0.66
0.75
0.73
0.59
0.39
0.17
-0.02
-0.16
-0.28
-0.37
-0.46
-0.54
-0.59
-0.59
-0.53
-0.36
-0.07
0.29
0.64
0.83
0.75
0.41
-0.08
-0.50
-0.66
-0.50
-0.14
0.22
0.38
0.31
0.10
-0.09
-0.13
-0.03
0.09
0.13
0.03
-0.13
-0.26
-0.27
-0.15
0.04
0.20
0.27
0.25
0.18
0.08
-0.04
-0.18
-0.32
-0.41
-0.41
-0.29
-0.07
0.19
0.44
0.60
0.67
0.65
0.56
0.45
0.36
0.32
0.36
0.46
0.56
0.58
0.47
0.26
0.04
-0.07
0.00
0.19
0.34
0.32
0.10
-0.22
-0.48
-0.53
-0.36
-0.09
0.12
0.18
0.09
-0.05
-0.16
-0.19
-0.18
-0.19
-0.21
-0.18
-0.03
0.22
0.47
0.58
0.46
0.15
-0.19
-0.37
-0.30
-0.01
0.36
0.66
0.77
0.68
0.43
0.06
-0.39
-0.88
-1.35
-1.68
-1.77
-1.57
-1.13
-0.58
-0.08
0.24
0.34
0.27
0.10
-0.10
-0.25
-0.32
-0.32
-0.23
-0.08
0.10
0.28
0.44
0.54
0.59
0.58
0.51
0.36
0.16
-0.06
-0.25
-0.36
-0.38
-0.31
-0.18
-0.00
0.20
0.44
0.67
0.85
0.88
0.72
0.37
-0.06
-0.39
-0.53
-0.43
-0.20
0.02
0.10
0.02
-0.18
-0.40
-0.54
-0.56
-0.49
-0.34
-0.11
0.19
0.55
0.90
1.15
1.22
1.09
0.78
0.39
0.01
-0.26
-0.39
-0.41
-0.37
-0.36
-0.42
-0.54
-0.65
-0.67
-0.53
-0.29
-0.04
0.09
0.05
-0.12
-0.30
-0.34
-0.20
0.07
0.32
0.44
0.36
0.16
-0.07
-0.21
-0.26
-0.28
-0.34
-0.49
-0.67
-0.78
-0.71
-0.43
-0.01
0.39
0.63
0.65
0.47
0.22
0.01
-0.10
-0.12
-0.12
-0.18
-0.33
-0.54
-0.73
-0.81
-0.73
-0.48
-0.12
0.28
0.62
0.84
0.92
0.87
0.77
0.66
0.59
0.53
0.48
0.43
0.41
0.41
0.45
0.46
0.38
0.19
-0.06
-0.29
-0.38
-0.29
-0.07
0.16
0.29
0.28
0.17
0.06
0.00
0.02
0.06
0.06
-0.01
-0.15
-0.27
-0.29
-0.14
0.14
0.47
0.68
0.69
0.47
0.10
-0.30
-0.60
-0.76
-0.75
-0.60
-0.35
-0.01
0.38
0.75
1.01
1.10
0.98
0.69
0.31
-0.09
-0.45
-0.75
-0.97
-1.11
-1.16
-1.13
-1.06
-0.95
-0.82
-0.67
-0.50
-0.34
-0.21
-0.14
-0.10
-0.08
-0.06
-0.01
0.03
0.03
-0.01
-0.08
-0.14
-0.15
-0.10
-0.02
0.07
0.14
0.20
0.24
0.26
0.25
0.17
0.05
-0.07
-0.08
0.05
0.31
0.59
0.78
0.81
0.67
0.42
0.13
-0.13
-0.33
-0.46
-0.49
-0.40
-0.20
0.06
0.28
0.36
0.26
0.01
-0.26
-0.45
-0.46
-0.31
-0.05
0.19
0.31
0.28
0.10
-0.13
-0.31
-0.40
-0.38
-0.29
-0.17
-0.04
0.11
0.31
0.57
0.83
0.99
0.94
0.66
0.21
-0.26
-0.61
-0.73
-0.63
-0.35
-0.00
0.33
0.59
0.74
0.77
0.68
0.49
0.24
0.00
-0.18
-0.27
-0.29
-0.27
-0.22
-0.18
-0.13
-0.08
-0.03
0.02
0.05
0.07
0.08
0.10
0.11
0.11
0.11
0.14
0.19
0.24
0.26
0.21
0.06
-0.12
-0.28
-0.39
-0.45
-0.48
-0.52
-0.56
-0.54
-0.45
-0.28
-0.10
0.04
0.09
0.09
0.09
0.13
0.18
0.18
0.10
-0.04
-0.16
-0.17
-0.09
-0.02
-0.06
-0.29
-0.65
-0.98
-1.11
-0.96
-0.58
-0.13
0.22
0.36
0.32
0.16
-0.02
-0.16
-0.22
-0.19
-0.04
0.21
0.54
0.83
0.97
0.87
0.54
0.09
-0.35
-0.61
-0.64
-0.46
-0.14
0.20
0.49
0.68
0.76
0.76
0.74
0.74
0.76
0.76
0.71
0.57
0.38
0.17
-0.00
-0.14
-0.26
-0.38
-0.50
-0.56
-0.48
-0.27
0.02
0.26
0.34
0.20
-0.10
-0.42
-0.63
-0.62
-0.45
-0.23
-0.10
-0.17
-0.42
-0.73
-0.96
-1.00
-0.85
-0.57
-0.27
-0.03
0.13
0.27
0.41
0.58
0.70
0.72
0.59
0.36
0.10
-0.05
-0.04
0.12
0.34
0.50
0.53
0.41
0.21
0.01
-0.12
-0.18
-0.21
-0.24
-0.25
-0.25
-0.22
-0.18
-0.19
-0.29
-0.45
-0.59
-0.63
-0.50
-0.23
0.08
0.32
0.39
0.29
0.09
-0.10
-0.17
-0.08
0.16
0.43
0.60
0.58
0.34
-0.03
-0.34
-0.45
-0.30
0.04
0.43
0.71
0.81
0.75
0.64
0.56
0.54
0.58
0.62
0.60
0.53
0.43
0.32
0.21
0.07
-0.12
-0.37
-0.66
-0.92
-1.08
-1.08
-0.92
-0.65
-0.37
-0.13
0.06
0.24
0.47
0.70
0.87
0.87
0.67
0.33
0.01
-0.17
-0.17
-0.09
-0.03
-0.10
-0.29
-0.50
-0.61
-0.59
-0.50
-0.44
-0.51
-0.69
-0.89
-0.98
-0.89
-0.64
-0.34
-0.09
0.04
0.06
0.02
-0.04
-0.11
-0.19
-0.30
-0.44
-0.57
-0.64
-0.59
-0.43
-0.18
0.12
0.40
0.61
0.69
0.65
0.50
0.34
0.24
0.27
0.44
0.71
0.98
1.15
1.17
1.03
0.78
0.51
0.25
0.03
-0.14
-0.28
-0.37
-0.38
-0.34
-0.30
-0.33
-0.48
-0.73
-0.99
-1.12
-1.04
-0.77
-0.38
-0.04
0.14
0.15
0.05
-0.02
0.06
0.29
0.63
0.91
1.03
0.93
0.64
0.29
-0.03
-0.25
-0.39
-0.45
-0.47
-0.41
-0.28
-0.04
0.25
0.55
0.77
0.85
0.77
0.56
0.28
0.01
-0.13
-0.09
0.11
0.36
0.54
0.51
0.23
-0.21
-0.66
-0.97
-1.04
-0.90
-0.62
-0.31
-0.02
0.22
0.45
0.65
0.78
0.78
0.60
0.27
-0.14
-0.49
-0.67
-0.62
-0.39
-0.07
0.17
0.25
0.14
-0.08
-0.30
-0.41
-0.35
-0.16
0.06
0.25
0.34
0.32
0.26
0.22
0.23
0.27
0.27
0.17
-0.07
-0.40
-0.73
-0.94
-0.91
-0.67
-0.29
0.07
0.27
0.28
0.16
0.04
0.04
0.17
0.38
0.53
0.54
0.38
0.14
-0.06
-0.13
-0.05
0.09
0.16
0.10
-0.09
-0.31
-0.45
-0.44
-0.29
-0.09
0.07
0.15
0.18
0.22
0.33
0.49
0.62
0.64
0.50
0.23
-0.10
-0.39
-0.60
-0.71
-0.75
-0.74
-0.69
-0.62
-0.55
-0.50
-0.48
-0.50
-0.52
-0.53
-0.53
-0.53
-0.54
-0.54
-0.50
-0.36
-0.11
0.19
0.46
0.61
0.61
0.53
0.46
0.49
0.63
0.80
0.87
0.77
0.52
0.23
0.06
0.09
0.32
0.62
0.82
0.84
0.69
0.46
0.29
0.21
0.21
0.18
0.05
-0.18
-0.41
-0.54
-0.49
-0.28
0.01
0.28
0.45
0.50
0.43
0.24
-0.06
-0.41
-0.73
-0.91
-0.89
-0.68
-0.37
-0.10
0.02
-0.01
-0.14
-0.29
-0.36
-0.34
-0.23
-0.04
0.18
0.39
0.52
0.54
0.44
0.27
0.07
-0.10
-0.21
-0.27
-0.27
-0.25
-0.19
-0.10
-0.00
0.10
0.20
0.31
0.44
0.58
0.68
0.70
0.59
0.34
-0.02
-0.40
-0.70
-0.82
-0.76
-0.57
-0.38
-0.29
-0.34
-0.45
-0.52
-0.45
-0.25
